Tiempo (s),Voltaje (V)
0.18328200000152,1.89747697312851
2.54142700000107,1.89264566640486
2.56946400000155,1.86462408740772
2.59811700000241,1.88008426892338
2.61270399999991,1.91293715464417
2.62870800000057,1.9039187154267
2.64417100000009,1.91905680982745
2.65918800000101,1.9106825448398
2.67504400000349,1.89135731794522
2.69290799999982,1.89522236332414
2.70823500000313,1.89425610197941
2.72449100000039,1.88555974987685
2.7440530000031,1.90810584792052
2.7604830000028,1.90005367004778
2.7769280000031,1.89908740870305
2.79203700000048,1.89200149217504
2.8077330000028,1.88845853391103
2.82326800000295,1.87879592046374
2.83913700000197,1.85174060281133
2.85430800000206,1.83370372437639
2.86969700000063,1.8272619820782
2.88404500000179,1.84336633782368
2.89999400000274,1.83853503110004
2.91997600000352,1.82629572073347
2.94238700000197,1.91583593867836
2.95831700000167,1.91648011290818
2.97558300000057,1.91293715464417
2.99052100000158,1.87009956836118
3.00540799999982,1.85979278068407
3.02021300000325,1.84272216359386
3.03443500000238,1.8308049403422
3.04877600000054,1.83789085687022
3.07045700000227,1.84207798936404
3.0859280000031,1.80503797114943
3.10130200000107,1.84175590224913
3.11658700000122,1.83048285322729
3.13124500000104,1.87203209105064
3.1454290000014,1.87686339777429
3.16051200000197,1.93967038518167
3.17557100000232,1.87782965911902
3.19034400000051,1.90166410562233
3.2059140000008,1.88588183699176
3.22096100000292,1.84014546667458
3.23538300000131,1.82855033053784
3.24903200000152,1.84626512185787
3.2644450000003,1.87750757200411
3.2817490000017,1.86655661009718
3.29862200000137,1.85560564819025
3.31635500000045,1.83434789860621
3.33405100000277,1.82887241765275
3.34811400000006,1.86526826163754
3.36225900000334,1.90359662831179
3.37741700000316,1.91486967733363
3.39436600000039,1.90520706388634
3.41285100000352,1.89135731794522
3.42883000000194,1.87589713642956
3.44351099999994,1.91132671906962
3.45828500000015,1.91100463195471
3.47411500000209,1.89876532158814
3.48970600000024,1.90778376080561
3.50376800000295,1.84948599300697
3.51719800000265,1.82146441400982
3.53086200000346,1.88427140141721
3.54519299999997,1.89425610197941
3.55963100000098,1.90134201850742
3.5745390000008,1.89361192774959
3.59018000000343,1.87557504931465
3.61292400000244,1.86365782606299
3.6271630000025,1.90842793503543
3.64291100000218,1.87686339777429
3.65701900000125,1.89618862466887
3.67201900000125,1.85496147396043
3.68799300000072,1.85367312550079
3.7023580000028,1.80568214537925
3.71583700000122,1.84529886051314
3.73137200000137,1.84884181877715
3.74806500000134,1.84626512185787
3.7633730000034,1.88169470449793
3.77771000000089,1.89940949581796
3.79277000000328,1.90939419638016
3.80788599999994,1.88878062102594
3.82282200000063,1.90198619273724
3.83786300000176,1.84497677339823
3.85251700000092,1.84368842493859
3.8659450000003,1.81663310728618
3.88155000000075,1.82210858823964
3.89810000000149,1.86430200029281
3.91243000000343,1.91841263559763
3.92791000000015,1.92421020366601
3.94245399999991,1.91003837060998
3.95651700000092,1.89232357928995
3.97188000000268,1.87267626528046
3.98616000000015,1.90230827985215
4.00011600000039,1.78828944117413
4.01395000000298,1.87879592046374
4.02749100000039,1.87944009469356
4.04176900000125,1.93000777173438
4.05633300000057,1.94804465016932
4.07076400000229,1.84336633782368
4.09024500000104,2.14677240006858
4.10444100000337,1.67781356076011
4.11885000000149,1.96511526725953
4.13216800000146,1.71936279858346
4.14646200000122,1.92582063924056
4.16078299999982,1.89586653755396
4.17536800000072,1.82146441400982
4.19222800000012,2.01117372469162
4.2065390000008,1.83112702745711
4.22092200000212,1.81920980420546
4.23467200000212,1.8539952126157
4.25052800000086,1.80986927787308
4.264819000002,1.87944009469356
4.27898500000313,1.90778376080561
4.29350300000235,1.94965508574387
4.3082330000028,1.88684809833649
4.32338400000334,1.87364252662519
4.33807100000232,1.85947069356916
4.35274300000072,1.85496147396043
4.36589900000021,1.83338163726148
4.37975900000334,1.86752287144191
4.3937890000008,1.90939419638016
4.40955600000173,1.91937889694236
4.42558200000227,1.920667245402
4.44203299999982,1.92421020366601
4.45735300000012,1.90295245408197
4.4735540000014,1.89973158293287
4.48947500000149,1.8939340148645
4.50422300000116,1.87042165547609
4.51845300000161,1.84336633782368
4.53188100000098,1.87493087508483
4.54714500000328,1.82468528515892
4.56304000000283,1.91358132887399
4.57780700000003,1.82210858823964
4.59479600000009,1.94256916921586
4.60999400000274,1.90842793503543
4.62519200000167,1.87235417816555
4.63993700000271,2.01858172833454
4.65435200000182,1.67588103807066
4.6691630000025,2.03178730004583
4.68230200000107,1.89908740870305
4.69691800000146,1.95641891515697
4.71140500000119,1.77250717254356
4.72650600000098,2.00279945970397
4.74108800000325,1.95416430535261
4.75655700000003,1.97187909667264
4.77227100000158,1.79344283501268
4.78961400000006,1.85335103838588
4.8069290000014,1.82532945938874
4.82327300000191,1.89490027620923
4.84281600000337,1.81244597479235
4.86004900000244,1.95029925997369
4.87763400000334,1.87815174623393
4.89488100000098,1.9006978442776
4.91114400000125,1.85882651933935
4.92777000000328,1.87944009469356
4.94272200000286,1.90327454119688
4.9579840000011,1.8971548860136
4.97363400000334,1.89361192774959
4.99010600000247,1.89135731794522
5.00738200000301,1.90263036696706
5.02336200000346,1.87493087508483
5.03915300000086,1.88523766276194
5.05615900000185,1.85496147396043
5.0766090000011,1.8739646137401
5.09459900000319,2.01793755410472
5.1122880000025,1.75575864256825
5.13465400000289,1.71356523051509
5.15413500000164,1.89876532158814
5.175194000002,1.93967038518167
5.19297600000352,1.95802935073152
5.21093900000304,1.9006978442776
5.22827000000328,1.86011486779898
5.2475390000008,1.89683279889869
5.26304500000179,1.71549775320455
5.27949600000307,1.87847383334883
5.30181500000134,1.87042165547609
5.32282500000298,1.84819764454733
5.34106400000304,1.82983867899748
5.35868800000101,1.90295245408197
5.37470399999991,1.90681749946089
5.3901080000028,1.87879592046374
5.40563400000334,1.87621922354447
5.42190200000256,1.85238477704115
5.43724400000274,1.82500737227383
5.45524600000307,1.85367312550079
5.47236700000241,1.88169470449793
5.4886630000025,1.87750757200411
5.50490799999982,1.8539952126157
5.52304100000113,1.89103523083031
5.54076700000092,1.88974688237067
5.56248900000006,1.76993047562428
5.57979400000349,1.90810584792052
5.59611500000209,2.04756956867641
5.61151700000092,2.13099013143801
5.62978400000185,1.8507743414666
5.64843400000036,1.67169390557683
5.66646100000292,1.90681749946089
5.68655600000173,1.99023806222249
5.70485300000012,1.73675550278858
5.72477600000054,1.66267546635936
5.74278500000015,1.77959308907157
5.75782200000063,1.97864292608574
5.7719830000028,1.92324394232128
5.78750500000268,1.86140321625862
5.80299000000209,1.84368842493859
5.81687700000033,1.83016076611239
5.83083000000194,1.77089673696901
5.84504500000179,1.91454759021872
5.8599140000008,1.91422550310381
5.87377199999988,1.8907131437154
5.88781100000069,1.85013016723678
5.90109100000188,1.80310544845997
5.91411400000006,1.84433259916841
5.93053500000015,1.82468528515892
5.94485300000012,1.91197089329944
5.96095700000227,1.88652601122158
5.9754280000031,1.96543735437444
5.98955100000277,1.86913330701645
6.00408000000194,1.95448639246752
6.01871400000155,1.76348873332608
6.03215600000322,1.83789085687022
6.0469280000031,1.92871942327474
6.06224000000209,2.05304504962987
6.07764699999988,1.93773786249221
6.0919990000017,1.82693989496329
6.10702300000191,2.16255466869916
6.12146800000221,1.67813564787502
6.13584800000116,1.70132592014852
6.14920399999991,1.84916390589206
6.16322900000215,1.77315134677337
6.17724300000072,1.72322784396238
6.19170300000161,2.00956328911707
6.20652300000191,1.82629572073347
6.22065799999982,1.92839733615983
6.23478500000015,1.89940949581796
6.24860400000215,1.73901011259295
6.26358500000089,1.80310544845997
6.27845900000259,1.90230827985215
6.29283900000155,1.92775316193001
6.3073040000014,1.86269156471826
6.32131700000167,1.88362722718739
6.33666000000015,1.85045225435169
6.34981100000069,1.80825884229853
6.36362900000066,1.84594303474296
6.37935400000215,1.82565154650365
6.393819000002,1.9174463742529
6.40996700000018,1.89876532158814
6.42446900000051,1.91615802579327
6.43932300000265,1.89425610197941
6.45541700000316,1.87815174623393
6.47265600000322,2.00763076642761
6.49009800000116,1.96769196417881
6.50580700000003,1.80922510364326
6.52141000000015,1.83628042129567
6.5368200000003,1.88266096584266
6.55365200000256,1.86881121990154
6.57060000000149,1.62950049352366
6.58594900000095,1.99957858855487
6.60117600000277,1.73514506721403
6.6143590000011,1.66331964058918
6.62847300000116,1.97509996782173
6.64353299999982,1.89232357928995
6.65758700000122,1.95899561207625
6.67193700000271,1.97348953224719
6.68624300000072,1.82178650112473
6.69944000000134,1.83628042129567
6.71408400000259,1.87686339777429
6.72902400000021,1.81985397843528
6.74330100000277,1.87332043951028
6.75769000000134,1.89940949581796
6.77245800000057,1.88427140141721
6.78746100000292,1.86043695491389
6.80143800000101,1.82790615630802
6.81521700000018,1.83692459552549
6.82925800000131,1.8607590420288
6.84388599999994,1.91261506752926
6.85924400000274,1.91293715464417
6.87365000000224,1.90263036696706
6.88794299999997,1.93580533980276
6.90225800000131,1.77347343388828
6.9155700000003,1.78378022156539
6.93068800000101,1.89683279889869
6.94485700000078,1.67427060249611
6.95922900000215,1.90295245408197
6.97400300000235,1.68425530305831
6.98827600000054,1.69681670053978
7.00188400000334,1.95223178266315
7.01589200000092,1.74802855181042
7.0302490000017,1.59535925934324
7.0438740000017,1.89554445043905
7.05885700000078,1.91197089329944
7.07289900000021,1.81985397843528
7.08736300000176,1.93000777173438
7.10086800000072,1.78667900559958
7.11416000000015,1.88620392410667
7.1292880000025,1.75962368794717
7.14333600000292,1.94095873364131
7.15783300000057,1.89039105660049
7.17226400000229,1.87106582970591
7.1867880000025,1.84562094762805
7.20137100000307,1.77572804369265
7.21543800000101,1.83531415995094
7.22965600000322,1.87235417816555
7.243819000002,1.93934829806676
7.258,1.87847383334883
7.27247900000215,2.01310624738107
7.28745300000161,1.81244597479235
7.3015140000023,1.75447029410861
7.31492400000244,1.6240250125702
7.32934900000319,1.77830474061193
7.34409800000116,1.8907131437154
7.35900600000098,1.88942479525576
7.37424700000137,1.66493007616373
7.38887900000066,1.95287595689297
7.40318400000036,1.8907131437154
7.41623500000313,1.72773706357111
7.43226200000197,1.77476178234792
7.44903700000048,1.93644951403257
7.46386500000209,1.66815094731282
7.47918100000173,1.88845853391103
7.49428200000152,2.00634241796797
7.5097880000025,1.80632631960907
7.52515000000224,1.93516116557294
7.54050800000131,1.92517646501074
7.55627199999988,1.85560564819025
7.57220000000298,1.89425610197941
7.58893400000036,1.870743742591
7.60626700000092,1.83950129244477
7.62226900000125,1.87815174623393
7.63858400000259,1.88362722718739
7.65559700000286,1.89135731794522
7.67208600000292,1.85914860645426
7.68821100000292,2.01697129275999
7.70602800000086,1.81502267171163
7.72126400000229,1.76606543024536
7.73657800000161,1.68876452266704
7.75250500000268,1.56959229015047
7.76787700000033,1.68489947728813
7.78517600000277,1.48456129181432
7.79856400000304,2.04885791713605
7.81252100000158,1.85818234510953
7.82628700000048,1.77637221792247
7.84061900000274,1.89876532158814
7.85528000000119,1.91454759021872
7.87217000000179,1.81502267171163
7.88813400000334,1.86236947760335
7.90330800000206,1.83821294398513
7.91740799999982,1.77959308907157
7.93175,1.81276806190726
7.94660000000149,1.90649541234598
7.96116600000113,1.92227768097655
7.97551000000164,1.92839733615983
7.9898430000022,1.9238881165511
8.0046230000034,1.84626512185787
8.01943300000206,1.86269156471826
8.03300800000131,1.84175590224913
8.04731700000167,1.84658720897278
8.06194100000337,1.89425610197941
8.07679100000113,1.88201679161284
8.09133900000155,1.8040717098047
8.10681300000101,1.78152561176103
8.12144700000063,1.8105134521029
8.13628200000152,2.22665000456618
8.14947800000012,1.61758327027201
8.16375300000236,2.11327534011798
8.17759700000286,1.96125022188062
8.19216700000316,2.00634241796797
8.20721700000018,1.74480768066132
8.22331700000167,2.05594383366406
8.23793600000069,1.7605899492919
8.25286700000241,2.08042245439719
8.26688200000301,1.80568214537925
8.28100200000033,1.89232357928995
8.29561900000274,1.90037575716269
8.31027500000224,1.90971628349507
8.3244450000003,1.93967038518167
8.33886200000346,1.867200784327
8.35354800000042,1.8240411109291
8.36789600000158,1.79344283501268
8.3814140000008,1.82468528515892
8.39587000000104,1.84594303474296
8.41068200000003,1.89973158293287
8.4252640000023,1.920667245402
8.43972700000182,1.90037575716269
8.45405100000277,1.90037575716269
8.46885700000077,1.76509916890063
8.4821950000003,1.87944009469356
8.4981080000028,1.91003837060998
8.51247800000012,2.08944089361466
8.52685000000149,1.8971548860136
8.54153600000217,1.79376492212759
8.55611100000143,1.74835063892533
8.57005900000036,1.73675550278858
8.58376300000027,1.76220038486645
8.59720800000057,1.78667900559958
8.6115,1.87911800757865
8.62700600000098,1.92582063924056
8.64397200000286,1.98218588434975
8.65917000000179,1.9573851765017
8.67359400000051,1.92324394232128
8.68814400000125,1.86526826163754
8.70230100000277,1.85367312550079
8.71778200000152,1.75285985853407
8.73100400000066,1.84111172801931
8.74515900000185,1.87589713642956
8.76011100000143,1.92259976809146
8.77605100000277,1.90134201850742
8.79174400000274,1.91325924175908
8.80613200000301,1.88684809833649
8.82022200000286,1.83885711821495
8.83409900000319,1.80858092941344
8.84749400000274,1.83273746303166
8.86118300000206,1.92485437789583
8.87556300000101,1.87203209105064
8.89054400000349,1.90359662831179
8.90649500000104,1.76091203640681
8.92133900000155,1.89264566640486
8.93770600000024,1.7873231798294
8.95216900000349,1.89296775351977
8.96711600000039,1.34799635509262
8.98174000000209,1.7973078803916
8.99651900000125,1.77766056638211
9.01121000000089,1.56991437726538
9.02613000000268,2.11198699165834
9.04112800000235,1.93612742691766
9.05624100000039,2.02373512217309
9.07030900000036,1.84787555743242
9.0846640000008,1.82565154650365
9.09861800000072,1.81180180056253
9.11342600000277,1.82017606555019
9.12940400000289,1.88878062102594
9.14452400000021,1.89457818909432
9.15853700000048,1.90875002215034
9.17357700000331,1.89779906024341
9.18811700000241,1.85689399664989
9.20271700000018,1.81437849748181
9.21627900000289,1.81244597479235
9.23125100000203,1.82371902381419
9.24600200000033,1.87686339777429
9.26017100000009,1.90037575716269
9.27452000000328,2.01987007679418
9.28917600000277,1.89264566640486
9.30324200000241,1.92131141963182
9.31688800000027,1.54801245345152
9.33221700000018,1.74319724508678
9.34729800000042,1.96221648322535
9.36200200000033,1.9006978442776
9.37741000000015,2.02502347063273
9.39254300000146,1.84433259916841
9.40770600000024,1.72290575684747
9.42223200000078,1.89490027620923
9.43649700000137,1.88813644679612
9.45086900000274,1.80310544845997
9.46473800000176,1.82468528515892
9.47929500000179,1.88233887872775
9.49431100000069,1.91680220002308
9.50915799999982,1.98605092972866
9.52377000000328,1.84658720897278
9.53823800000176,1.88942479525576
9.5534980000034,1.83338163726148
9.56918600000069,1.83305955014657
9.58335000000149,1.80761466806871
9.59776700000092,1.8372466826404
9.61160000000149,1.88298305295757
9.62557400000095,1.95255386977806
9.6403040000014,1.84207798936404
9.65476600000262,1.93194029442384
9.66957899999991,1.91970098405727
9.68361600000039,1.8572160837648
9.70211300000176,1.7873231798294
9.72516800000146,1.61951579296147
9.74168900000304,1.77701639215229
9.75656100000069,1.86881121990154
9.77100800000131,1.90875002215034
9.78494000000134,1.89844323447323
9.79856500000134,1.73256837029476
9.81215400000289,1.73546715432894
9.82645100000128,1.99249267202686
9.84082899999991,1.86881121990154
9.85544800000265,1.867200784327
9.87114900000021,1.89135731794522
9.88552000000328,1.76864212716464
9.89895100000128,1.81373432325199
9.91299200000241,1.84787555743242
9.92712000000104,1.91164880618453
9.94102300000191,1.89651071178378
9.95565700000152,1.88137261738302
9.97073500000313,1.84916390589206
9.98541600000113,1.81502267171163
9.99902199999988,1.78345813445048
10.0137130000032,1.87750757200411
10.0282609999999,1.78345813445048
10.0423910000026,2.00022276278469
10.0575260000005,1.88491557564703
10.0721380000003,1.86204739048844
10.0868330000006,1.8308049403422
10.1009310000017,1.86236947760335
10.114569000002,1.83628042129567
10.1289400000013,2.14290735468967
10.1514470000006,2.02341303505818
10.1704350000024,2.14677240006858
10.1889550000019,1.767353778705
10.2057700000033,1.97123492244282
10.2229550000019,2.04016156503349
10.2404590000026,2.01278416026616
10.2587970000021,1.92710898770019
10.2752790000029,1.9438575176755
10.2920590000004,1.9074616736907
10.3130789999999,1.84240007647895
10.3285410000011,1.90971628349507
10.3459270000011,1.86430200029281
10.3639420000017,1.84884181877715
10.3800870000012,1.92195559386164
10.3962690000013,1.86784495855682
10.4135100000016,1.97606622916646
10.4303530000001,1.90456288965652
10.4478280000016,1.87589713642956
10.4641640000008,1.9074616736907
10.4849040000029,1.46588023914956
10.503314000003,1.38020506658358
10.5199340000004,1.92549855212565
10.5357410000004,1.90134201850742
10.5524100000001,1.76832004004973
10.5688730000034,1.87332043951028
10.5855250000022,1.87428670085501
10.6024930000007,1.82500737227383
10.6197330000028,1.87267626528046
10.6386340000033,1.89554445043905
10.6560910000019,1.89554445043905
10.6812110000029,1.86043695491389
10.7075460000001,1.87782965911902
10.7326080000028,1.86977748124627
10.7582870000005,1.99120432356722
10.7778540000021,1.92195559386164
10.801943,1.78539065713994
10.8240190000013,1.96672570283408
10.8482280000001,2.07945619305247
10.8736030000001,1.73417880586931
10.8976570000015,1.86881121990154
10.9222950000018,1.81792145574582
10.9530950000025,1.90327454119688
10.9838100000024,1.81212388767744
11.0040820000023,1.85238477704115
11.024438000001,1.91229298041435
11.0436440000013,1.91615802579327
11.0621850000024,1.88169470449793
11.0802670000009,1.88684809833649
11.101189000003,1.81985397843528
11.1214130000025,1.8607590420288
11.1423840000033,1.91841263559763
11.1630360000022,1.84819764454733
11.1854000000022,1.82822824342293
11.2062120000012,2.02598973197746
11.227370000001,1.85431729973061
11.2482050000019,1.94997717285878
11.2720950000025,2.08783045804012
11.2945280000009,1.93483907845803
11.315064000003,1.8939340148645
11.3319810000025,1.91712428713799
11.348881000001,1.89908740870305
11.3656060000025,1.80600423249416
11.3816730000004,1.91486967733363
11.3974240000024,1.81566684594145
11.4167880000025,1.93612742691766
11.4387120000012,1.90134201850742
11.4582100000009,1.90681749946089
11.4750670000017,1.90552915100125
11.4925720000006,1.91970098405727
11.510376000002,1.90134201850742
11.527824000001,1.91164880618453
11.5444210000001,1.9074616736907
11.5597660000026,1.84497677339823
11.5782850000001,1.95835143784643
11.6074590000026,1.74287515797187
11.6303830000013,1.64624902349897
11.6882250000015,1.64496067503933
11.7402719999999,1.88749227256631
11.7911080000028,1.90939419638016
11.8213560000025,1.71420940474491
11.8592370000035,1.90875002215034
11.8860100000016,1.80342753557488
11.9157180000022,1.82275276246946
11.9507260000035,1.85302895127097
11.9799030000009,1.95641891515697
12.0027829999998,1.71002227225108
12.026314000003,1.67104973134701
12.0505730000027,1.83273746303166
12.0740350000001,2.03822904234403
12.0975540000014,1.83660250841058
12.1224810000025,1.60115682741161
12.1445340000018,1.95190969554824
12.1631380000003,1.86494617452263
12.1805960000008,1.89940949581796
12.202188000001,1.8040717098047
12.2216700000018,1.83144911457202
12.2418030000031,1.92002307117218
12.2576650000028,1.94160290787113
12.2734780000001,1.86848913278664
12.289188000001,1.87815174623393
12.304444000002,1.84948599300697
12.3201900000013,1.84755347031751
12.3354830000028,1.76445499467081
12.350262000002,1.82146441400982
12.3649720000029,1.85818234510953
12.3815940000005,1.82919450476766
12.3994590000026,1.6108194408589
12.4147390000001,1.98250797146466
12.4310150000006,1.71131062071072
12.4468510000035,1.64818154618843
12.4623380000032,1.91293715464417
12.4782940000035,1.82371902381419
12.4980710000023,1.98669510395848
12.5203770000003,1.91873472271254
12.5357640000023,1.77089673696901
12.5516080000028,1.74577394200605
12.5684360000007,1.85045225435169
12.5843410000019,1.80374962268979
12.6010420000032,1.8140564103669
12.6173050000034,1.79537535770214
12.633574000001,1.80117292577052
12.6494630000032,1.78989987674868
12.6690850000009,1.78603483136976
12.6879760000035,1.84755347031751
12.7111730000004,1.92936359750456
12.7311720000021,1.8472313832026
12.7536000000015,1.83466998572112
12.7740050000027,1.83917920532986
12.794631000001,1.92002307117218
12.8206210000031,1.77572804369265
12.8430930000022,1.89812114735832
12.8660310000032,1.8572160837648
12.8870109999999,1.82339693669928
12.9064460000023,1.89812114735832
12.9296120000035,1.83563624706585
12.9495219999999,1.88555974987685
12.9732160000019,1.86848913278664
13.000757000003,1.88427140141721
13.025756000001,1.90585123811616
13.0447380000018,1.94514586613514
13.0667990000024,1.78571274425485
13.0858170000017,1.78345813445048
13.1061730000004,1.87460878796992
13.1249450000003,1.87750757200411
13.1462480000034,1.86526826163754
13.1614820000008,1.87782965911902
13.1771210000031,1.88362722718739
13.1925720000006,1.91293715464417
13.2097690000013,1.95416430535261
13.229950000003,1.90939419638016
13.248694000002,1.84368842493859
13.2633900000006,1.77347343388828
13.2755250000022,1.99667980452068
13.2871420000009,1.77830474061193
13.2981070000008,1.94160290787113
13.3092780000009,1.80761466806871
13.3205820000023,1.8204981526651
13.3310580000021,1.85302895127097
13.3421600000001,1.96092813476571
13.3532780000009,1.80246127423015
13.3636920000017,1.92098933251691
13.3744580000006,1.93644951403257
13.385432,1.81534475882654
13.3955080000013,1.93194029442384
13.4070830000006,1.85786025799462
13.4169710000008,1.81276806190726
13.4278540000021,1.87621922354447
13.4398280000016,1.90971628349507
13.4498490000032,1.92131141963182
13.4619290000014,1.73031376049039
13.4741650000028,1.99378102048649
13.4853390000016,1.69262956804596
13.4955800000019,1.93000777173438
13.5066750000007,1.92614272635547
13.5178289999999,1.81856562997564
13.5285100000016,1.86977748124627
13.5408720000014,1.89618862466887
13.5524690000005,1.8539952126157
13.5636570000015,1.87042165547609
13.5746600000001,1.89618862466887
13.5858950000033,1.82822824342293
13.5971640000008,1.84207798936404
13.607375,1.89876532158814
13.618251000002,1.80954719075817
13.6315800000019,1.83016076611239
13.6426180000007,1.89940949581796
13.6591610000022,1.89232357928995
13.6754560000002,1.90875002215034
13.688194000002,1.87299835239537
13.7003560000025,1.80213918711524
13.7249250000007,1.9039187154267
13.7447420000024,1.93032985884929
13.7594280000031,1.84207798936404
13.7714200000018,1.97026866109809
13.782313000001,1.65269076579716
13.7943730000034,1.75124942295952
13.8066680000015,2.19895051268395
13.8174070000015,1.63658641005168
13.8272800000012,1.82887241765275
13.8382470000014,1.8472313832026
13.8483470000029,2.01536085718544
13.8595850000009,1.83789085687022
13.8706540000029,1.76381082044099
13.8806750000007,1.86591243586736
13.8911330000013,1.97542205493664
13.9021340000033,1.66138711789972
13.9127270000018,1.88201679161284
13.9295350000001,1.9174463742529
13.9463950000033,1.85431729973061
13.9614690000005,1.91197089329944
13.9773840000033,1.91132671906962
13.9943330000006,1.89908740870305
14.0114420000017,1.90101993139251
14.0270600000024,1.90939419638016
14.0428300000019,1.92807524904492
14.0583090000004,1.91776846136781
14.0764240000024,1.92324394232128
14.0915930000022,1.93516116557294
14.1055090000033,2.03822904234403
14.1191130000018,1.70003757168888
14.1332210000008,1.74448559354641
14.1465020000003,1.96543735437444
14.1600899999999,1.95641891515697
14.1741340000033,1.90778376080561
14.1884630000032,1.67684729941539
14.2036060000025,1.92968568461947
14.2178340000026,1.8507743414666
14.2311220000014,1.39598733521416
14.2486620000005,2.02019216390909
14.263893000003,1.93194029442384
14.2794580000006,1.84368842493859
14.2935810000002,1.8971548860136
14.309512000002,1.9941031076014
14.3242930000015,1.80181710000033
14.3394780000001,1.91648011290818
14.3555910000019,1.8639799131779
14.3712520000003,1.82082023978001
14.387762000002,1.87621922354447
14.4038340000026,1.85206268992624
14.4196720000021,1.8372466826404
14.4345390000008,1.82339693669928
14.4502410000004,1.82146441400982
14.4661800000034,1.74609602912096
14.4816020000018,1.84755347031751
14.4971420000009,1.79344283501268
14.5118510000035,1.94643421459477
14.5266280000024,1.67813564787502
14.5417900000028,1.9338728171133
14.5573950000033,1.62015996719128
14.5726270000003,1.90424080254161
14.5880710000023,1.9538422182377
14.6036750000007,1.73868802547804
14.6183370000012,1.87782965911902
14.6318950000033,1.74867272604024
14.6471700000018,1.53029766213149
14.6622160000019,1.92904151038965
14.6771510000005,1.85818234510953
14.6934620000012,1.96447109302972
14.7074130000025,1.80986927787308
14.7239930000007,1.90198619273724
14.7386469999999,1.88555974987685
14.7526670000032,1.80181710000033
14.7671960000023,1.82565154650365
14.7813320000023,1.83305955014657
14.7953270000033,1.88105053026811
14.8097690000013,1.91100463195471
14.8244980000034,1.90842793503543
14.8394550000019,1.87364252662519
14.8543859999999,1.8639799131779
14.8693260000013,1.94095873364131
14.8838570000008,1.71517566608964
14.9060710000023,1.77121882408392
14.9214460000023,1.74223098374205
14.9380170000009,1.6108194408589
14.9592960000001,1.89296775351977
15.0388360000029,1.9374157753773
15.0579990000017,1.73095793472021
15.0728960000016,1.90939419638016
15.0866980000027,1.8204981526651
15.099882000003,1.8607590420288
15.1135890000016,1.86430200029281
15.1275250000022,1.90617332523107
15.1414090000018,1.8839493143023
15.1556490000002,1.92324394232128
15.1713800000027,1.84626512185787
15.1855840000026,1.82017606555019
15.1987020000033,1.84175590224913
15.2132090000026,1.90263036696706
15.2278490000032,1.87493087508483
15.2420430000015,1.90875002215034
15.2564480000027,1.85045225435169
15.2710030000024,1.91937889694236
15.2874980000034,1.84207798936404
15.3012390000001,1.83048285322729
15.3152149999999,1.76993047562428
15.3295390000008,1.6539791142568
15.3441390000023,1.97187909667264
15.3582430000007,1.75318194564898
15.3729420000017,1.8472313832026
15.3869210000001,1.90327454119688
15.4009640000015,1.68457739017322
15.4141650000028,1.92098933251691
15.4284770000018,1.74029846105259
15.4441650000028,1.87944009469356
15.4594030000009,1.95029925997369
15.4746450000033,1.89940949581796
15.4908710000031,1.88781435968122
15.5058640000001,1.86881121990154
15.5205460000001,1.85013016723678
15.5348460000008,1.8240411109291
15.548825000003,1.82114232689491
15.5637950000018,1.85206268992624
15.5790140000023,1.87750757200411
15.5937430000007,1.91454759021872
15.6108350000009,1.94997717285878
15.6258270000033,1.91519176444854
15.6411630000025,2.00956328911707
15.6565470000021,1.93322864288348
15.6715660000034,1.99249267202686
15.686251000002,1.90520706388634
15.700950000003,1.68683199997758
15.7141450000033,1.74641811623587
15.728568,2.15031535833259
15.7429040000029,1.71517566608964
15.7596300000027,2.16545345273335
15.7735930000022,1.74609602912096
15.789132000003,2.02148051236873
15.8060329999998,1.95255386977806
15.8207130000032,1.72934749914566
15.8342660000026,1.77379552100319
15.8477140000015,1.93419490422821
15.8626230000034,1.94933299862896
15.8775720000006,1.94289125633077
15.8931080000028,1.92582063924056
15.908007000003,1.920667245402
15.9232750000022,1.91905680982745
15.938012000002,1.87138791682082
15.9525770000033,1.88105053026811
15.9680810000002,1.7905440509785
15.9850550000034,1.82468528515892
16.0034190000035,1.82790615630802
16.0207120000012,1.91648011290818
16.0389539999999,1.91615802579327
16.0617920000032,2.11263116588816
16.0775760000013,2.01632711853017
16.094074000001,2.15965588466497
16.1096030000001,1.80954719075817
16.1236730000004,2.11746247261181
16.1386400000006,1.79086613809341
16.1532520000003,1.91164880618453
16.1673270000033,1.970590748213
16.1812609999999,1.86881121990154
16.1967110000029,1.81437849748181
16.2107270000018,1.91293715464417
16.2248230000027,1.97703249051119
16.2388890000023,1.86140321625862
16.2596490000002,1.90166410562233
16.2735530000031,1.98572884261375
16.2879190000035,1.80825884229853
16.3030329999998,1.85818234510953
16.3169160000011,1.80503797114943
16.3308510000035,1.84368842493859
16.3450930000022,1.86977748124627
16.3590650000013,1.90713958657579
16.3733850000016,1.89618862466887
16.3876280000024,1.88298305295757
16.4010170000009,1.80181710000033
16.4152340000011,1.82790615630802
16.429949000001,1.84465468628332
16.4446740000024,1.85592773530516
16.4596600000001,1.92098933251691
16.479443,1.8105134521029
16.4945760000013,1.72129532127292
16.5098490000032,1.77894891484175
16.5259640000016,1.81115762633272
16.5405500000007,1.84111172801931
16.5577470000014,1.7338567187544
16.5779450000003,1.83305955014657
16.5950830000006,1.97413370647701
16.6101240000017,1.76832004004973
16.6235360000022,1.8971548860136
16.6375050000027,1.85141851569642
16.6511330000013,1.94514586613514
16.665574000001,1.86140321625862
16.6822290000021,1.82822824342293
16.6981190000027,1.86977748124627
16.7136140000001,1.82951659188257
16.7294030000009,1.84980808012187
16.7463080000021,1.88555974987685
16.768370000001,1.81953189132037
16.7844560000002,1.8204981526651
16.7984710000008,1.84755347031751
16.8143550000004,1.83531415995094
16.8287100000009,1.88749227256631
16.8450840000026,1.84529886051314
16.8605500000007,1.89844323447323
16.8754350000024,1.99539145606104
16.8914770000018,1.81083553921781
16.9066330000013,1.95867352496134
16.9226050000004,1.48552755315905
16.9383200000003,2.13678769950639
16.9537340000011,1.90971628349507
16.9726330000013,2.01697129275999
16.9928010000028,2.10812194627943
17.009506000001,1.98315214569448
17.0260160000026,2.01793755410472
17.0463110000007,1.90134201850742
17.064944000002,1.75285985853407
17.0829240000024,1.86494617452263
17.1022430000007,1.81566684594145
17.1195310000032,1.79247657366795
17.1358880000003,1.85624982242007
17.1541080000028,1.86204739048844
17.1723300000019,1.87138791682082
17.1895480000004,1.87106582970591
17.206813000001,1.9338728171133
17.2236860000007,1.91970098405727
17.2429040000029,1.95835143784643
17.2634120000005,1.97445579359191
17.2803930000029,1.59890221760725
17.2975290000029,1.80471588403452
17.3138990000002,1.71710818877909
17.3334649999999,1.60341143721598
17.3492590000033,1.92807524904492
17.3654400000013,1.62563544814475
17.3800160000026,1.8572160837648
17.3961340000033,1.77443969523301
17.412393000003,1.70229218149325
17.4281730000004,1.99635771740577
17.4455280000009,1.86752287144191
17.4622240000032,1.8839493143023
17.4796840000004,1.86977748124627
17.4961350000016,1.81437849748181
17.5170290000029,1.84207798936404
17.5379250000007,1.86752287144191
17.5533560000025,1.85238477704115
17.5714660000019,1.867200784327
17.5930910000019,1.88459348853212
17.6137170000002,1.85528356107534
17.6360140000023,1.83241537591675
17.6514230000004,1.89747697312851
17.6666340000033,1.70486887841253
17.681745000001,1.86204739048844
17.6970080000013,1.89522236332414
17.7122860000022,1.95545265381224
17.7307410000004,1.8308049403422
17.7518730000034,2.27077593930881
17.769700000003,1.77862682772684
17.7851420000009,1.78474648291012
17.8022370000035,1.77862682772684
17.8190090000033,1.89522236332414
17.835439000003,1.84497677339823
17.8502990000024,2.15192579390714
17.8671140000001,1.77250717254356
17.8830270000026,1.80600423249416
17.9013350000009,1.8340258114913
17.9194720000029,1.85238477704115
17.9357650000006,1.85013016723678
17.9525450000018,1.82983867899748
17.9683300000019,1.82983867899748
17.9842200000025,1.817277281516
18.0006660000011,1.85850443222444
18.0190460000001,1.81244597479235
18.0365460000001,1.81083553921781
18.0514850000031,1.79988457731088
18.0671960000023,1.76799795293482
18.0863670000024,1.80117292577052
18.1030360000022,1.90359662831179
18.119824000001,2.09588263591286
18.1368060000017,1.75672490391298
18.1548120000027,2.02856642889674
18.1722670000009,2.04499287175713
18.1888170000017,1.90649541234598
18.2038480000012,1.81920980420546
18.217700000003,1.97799875185592
18.2317080000006,1.95352013112279
18.2492540000007,1.93000777173438
18.268001000002,1.90585123811616
18.2860490000024,1.93709368826239
18.3016400000006,1.82565154650365
18.3170170000009,1.84368842493859
18.3357600000016,1.86462408740772
18.3514340000004,1.7841023086803
18.366995000001,1.86430200029281
18.382756000001,1.77959308907157
18.399950000003,1.83209328880184
18.420006000001,1.83048285322729
18.4366150000021,1.82565154650365
18.4527430000007,1.82146441400982
18.4689120000005,1.80761466806871
18.4862250000015,1.89457818909432
18.5063900000006,1.90810584792052
18.5238399999999,1.71517566608964
18.540057,1.74835063892533
18.5638980000019,1.74094263528241
18.5827480000034,1.86881121990154
18.6004510000013,2.06979357960518
18.6157719999999,1.59020586550469
18.6315899999998,1.79827414173633
18.647245000001,2.13356682835729
18.667762000002,1.79891831596615
18.6843100000024,1.56862602880574
18.7009310000017,1.85657190953498
18.7187340000011,1.77862682772684
18.7357200000025,1.84014546667458
18.7525080000013,1.85431729973061
18.7700780000016,1.84143381513422
18.7893830000013,1.85270686415606
18.8097320000008,1.94997717285878
18.828006000001,1.93483907845803
18.8459530000016,1.87106582970591
18.865307,1.83885711821495
18.8849520000033,1.90037575716269
18.9035030000024,1.81695519440109
18.9244260000028,2.02019216390909
18.9459340000004,2.07655740901828
18.9640140000023,1.98927180087776
18.9810580000021,1.96350483168499
18.9979660000019,1.70712348821689
19.0181900000013,1.72902541203075
19.0369280000031,1.89651071178378
19.0533969999999,1.55509836997953
19.069824000001,1.95319804400788
19.0859130000025,1.75801325237262
19.1032149999998,1.6739485153812
19.1201960000023,1.87267626528046
19.1383990000002,1.81437849748181
19.1564560000002,1.91809054848272
19.1745160000026,1.85045225435169
19.1908100000024,1.92807524904492
19.2068720000014,1.94450169190532
19.2231770000011,1.8572160837648
19.2411330000013,1.91841263559763
19.257932,1.89425610197941
19.2766620000005,1.90005367004778
19.2952540000007,1.89940949581796
19.3137670000009,1.80632631960907
19.3318780000024,1.97284535801737
19.349518000003,1.85141851569642
19.3684640000015,2.00376572104869
19.3849330000021,1.36474488506792
19.4014520000033,1.51129452235182
19.4194350000024,2.17962528578937
19.4343650000021,1.83660250841058
19.4510300000012,1.84594303474296
19.4669990000017,1.82371902381419
19.4824210000001,1.68489947728813
19.4960500000007,1.92839733615983
19.5095810000002,1.89618862466887
19.5242180000022,1.87525296219974
19.5387140000016,1.88910270814085
19.5526960000023,1.87009956836118
19.5655770000033,1.8140564103669
19.5804780000001,1.84368842493859
19.5958710000031,1.85914860645426
19.610318,1.9074616736907
19.6246130000018,1.91905680982745
19.6393010000028,1.90842793503543
19.6532190000005,1.89361192774959
19.6671040000021,1.75962368794717
19.6820980000012,1.87944009469356
19.6975290000029,1.6739485153812
19.7129110000022,1.78313604733557
19.7325650000013,1.77540595657774
19.7565130000003,1.7841023086803
19.7759150000028,1.52707679098239
19.793438000001,2.14838283564313
19.8160030000024,1.92517646501074
19.8325,1.93612742691766
19.8495200000033,1.99861232721014
19.8695200000033,1.85753817087971
19.892268000003,1.94095873364131
19.9122660000026,1.88105053026811
19.9318120000027,1.83112702745711
19.9567829999998,1.87944009469356
19.9770920000002,1.92582063924056
19.9965350000002,1.85109642858151
20.0199980000034,1.84819764454733
20.0382200000025,1.86816704567173
20.0574190000035,1.96575944148935
20.0766750000007,1.99667980452068
20.0939630000032,2.00537615662324
20.1159190000035,2.33036205556709
20.1321180000007,1.89296775351977
20.1485130000003,1.92163350674673
20.1659890000001,2.02276886082836
20.1835440000035,1.76026786217699
20.2015240000002,1.68650991286268
20.2193289999999,1.72290575684747
20.2350040000007,1.9538422182377
20.2532470000014,1.90778376080561
20.270620000001,1.8907131437154
20.2912640000023,1.89876532158814
20.3129160000011,1.87911800757865
20.3307030000016,1.84626512185787
20.3515360000022,1.81824354286073
20.3685720000006,1.78088143753121
20.3907710000016,1.92163350674673
20.4112710000016,1.89618862466887
20.4320490000024,1.8240411109291
20.4557290000021,1.95126552131842
20.4791330000013,1.90488497677143
20.5030040000007,1.84626512185787
20.5261590000018,1.74867272604024
20.545745000001,1.67491477672593
20.5630970000029,1.85624982242007
20.5811640000008,1.78442439579521
20.5990020000003,1.93773786249221
20.6209410000034,1.82339693669928
20.6456380000003,2.00086693701451
20.6734640000015,1.80181710000033
20.700575000003,1.78925570251886
20.7268790000007,1.88266096584266
20.7486020000018,1.88330514007248
20.7701550000012,1.87654131065938
20.789131000001,1.89457818909432
20.809262000002,1.91358132887399
20.8266600000001,1.88620392410667
20.8437080000006,1.89328984063468
20.8613510000035,1.87654131065938
20.8787980000004,1.81083553921781
20.8961340000033,2.05691009500879
20.9142910000011,1.95513056669733
20.9357080000006,1.95577474092715
20.9536460000016,1.46362562934519
20.9733460000008,1.66267546635936
20.9932829999998,1.82887241765275
21.016939000003,1.85914860645426
21.0339170000032,1.69842713611433
21.0560480000004,1.93999247229658
21.0760380000025,1.8539952126157
21.0977170000002,1.85914860645426
21.115251000002,1.82951659188257
21.1322860000022,1.8771854848892
21.1538420000002,1.8739646137401
21.1704460000023,1.84240007647895
21.1866720000021,1.8472313832026
21.2031550000012,1.86333573894808
21.2181830000021,1.82436319804401
21.2344090000018,1.81759936863091
21.2565090000033,1.90810584792052
21.2676680000015,1.84240007647895
21.2790530000031,1.86848913278664
21.2927580000013,1.8372466826404
21.3052540000007,2.03661860676948
21.3173600000031,1.70808974956162
21.3306810000017,1.66750677308301
21.3440800000019,1.65462328848662
21.3606180000007,1.74416350643151
21.3729020000026,2.04370452329749
21.3858450000025,1.75157151007443
21.4054260000028,1.99925650143996
21.4209610000029,1.85141851569642
21.4318320000023,1.84884181877715
21.4440820000023,1.90488497677143
21.4612690000013,1.87203209105064
21.4774630000032,1.90810584792052
21.4888090000004,1.89103523083031
21.5007280000001,1.85592773530516
21.5117240000032,1.87203209105064
21.5231790000014,1.9374157753773
21.5347980000004,1.85109642858151
21.5511230000034,1.80374962268979
21.5643680000007,1.84240007647895
21.577257000003,1.8807284431532
21.5889460000023,1.88974688237067
21.6000800000019,1.80503797114943
21.6148220000006,1.82693989496329
21.6281960000023,1.87621922354447
21.642689000003,1.88588183699176
21.6543080000021,1.87525296219974
21.6685760000013,1.91358132887399
21.7045410000011,1.90488497677143
21.769387000002,1.58086533917231
21.8078470000029,2.11649621126708
21.8283660000004,1.94901091151405
21.840689000003,1.76864212716464
21.8524870000035,1.93483907845803
21.868682,1.89457818909432
21.884307,1.82983867899748
21.8977320000008,1.83370372437639
21.9100100000016,1.89973158293287
21.9252970000021,1.90971628349507
21.9410400000028,1.90617332523107
21.9567630000003,1.88878062102594
21.9756000000015,1.86011486779898
21.9950390000008,1.84433259916841
22.0126050000004,1.82758406919311
22.0255109999999,1.9238881165511
22.0408210000023,1.94224708210095
22.054693,1.87782965911902
22.0678490000032,1.82371902381419
22.0802590000033,1.83756876975531
22.0931330000013,1.8907131437154
22.1076810000017,1.96221648322535
22.1307750000022,1.66782886019791
22.1506780000031,1.80439379691961
22.1772580000013,1.90842793503543
22.2034140000008,1.80954719075817
22.2212200000025,2.14870492275804
22.2386770000011,1.72902541203075
22.2569800000004,1.96189439611044
22.2768330000006,1.86816704567173
22.2972380000018,1.87557504931465
22.3150460000001,1.84207798936404
22.3328100000024,1.84046755378949
22.3540090000033,1.88684809833649
22.3745,1.95223178266315
22.3979740000032,1.82693989496329
22.4201450000033,1.88620392410667
22.4422360000014,1.90971628349507
22.4633470000029,1.84433259916841
22.4862180000022,1.85528356107534
22.5136130000018,1.85947069356916
22.530631000001,2.04434869752731
22.5473220000006,1.77186299831374
22.5640400000028,1.90585123811616
22.5873330000006,1.83660250841058
22.6054580000006,1.77830474061193
22.6234570000023,1.77540595657774
22.6398710000031,2.06013096615789
22.655949000001,1.97638831628137
22.6716870000027,1.88427140141721
22.6898540000021,1.98444049415411
22.7099150000028,1.88781435968122
22.7251410000026,1.9238881165511
22.741637000002,1.90617332523107
22.7621650000028,1.85624982242007
22.7836860000007,1.82983867899748
22.8023340000026,1.83756876975531
22.821768000003,1.90166410562233
22.8418590000011,1.9174463742529
22.8612280000001,1.87460878796992
22.8891770000011,1.90617332523107
22.9142340000011,2.07977828016737
22.9412260000035,1.72516036665183
22.9686780000031,1.86623452298227
22.9961000000015,1.74609602912096
23.0234400000013,1.71292105628527
23.049995000001,1.86945539413136
23.0772580000013,1.85882651933935
23.1041460000016,1.87750757200411
23.126262000002,1.91422550310381
23.1501180000007,1.8372466826404
23.1688610000014,1.85560564819025
23.1868640000001,1.81953189132037
23.2094980000034,1.91422550310381
23.2329580000006,1.82887241765275
23.2487910000011,1.82436319804401
23.2715140000023,1.89812114735832
23.2941480000019,1.88137261738302
23.3201510000005,1.85302895127097
23.3379010000005,1.64979198176297
23.3565540000014,2.14677240006858
23.3744280000031,2.19991677402868
23.3950550000034,2.02598973197746
23.4153320000023,1.97252327090246
23.4349180000015,1.80632631960907
23.4561780000031,1.90585123811616
23.4760880000032,1.96189439611044
23.4949640000015,1.88459348853212
23.5128110000007,1.84658720897278
23.5307960000001,1.83660250841058
23.5481810000017,1.83660250841058
23.5634960000031,1.82532945938874
23.5779140000008,1.8807284431532
23.593251000002,1.96028396053589
23.6082320000008,1.91486967733363
23.6196440000013,1.85657190953498
23.6306100000031,1.8105134521029
23.6435650000013,1.89876532158814
23.6568530000001,1.90166410562233
23.6705960000008,1.89747697312851
23.6862120000012,1.87879592046374
23.7048220000006,1.89812114735832
23.7219120000005,1.92195559386164
23.737132000003,1.93258446865366
23.7513540000021,1.88330514007248
23.7680170000009,1.7541482069937
23.7916540000029,1.87847383334883
23.8111760000028,1.90617332523107
23.8264510000013,1.87299835239537
23.8430860000029,2.05079043982551
23.8591120000035,1.95255386977806
23.8742039999999,1.90552915100125
23.8876710000001,1.89973158293287
23.9020370000005,1.85850443222444
23.9173800000027,1.8407896409044
23.9332640000023,1.83434789860621
23.9504079999998,1.83692459552549
23.9691120000035,1.89876532158814
23.9894470000006,1.92098933251691
24.0064970000014,1.90327454119688
24.0238990000002,1.91422550310381
24.0413170000017,1.91970098405727
24.0567800000012,1.91712428713799
24.0712650000006,1.91100463195471
24.0856150000021,1.86430200029281
24.0963660000004,1.81437849748181
24.1076020000018,1.91712428713799
24.119564000003,1.90875002215034
24.1304260000028,1.79376492212759
24.1423100000024,1.95674100227188
24.1548540000021,1.97220118378755
24.166757000003,1.76220038486645
24.1773160000034,1.72226158261765
24.1903220000006,2.03178730004583
24.2030050000027,1.80568214537925
24.2138850000016,1.90295245408197
24.2250470000021,1.79891831596615
24.2368170000017,2.06914940537536
24.2477440000027,1.73160210895003
24.2603040000014,1.82243067535455
24.2719090000018,2.02534555774764
24.2831980000027,1.70551305264235
24.2942640000023,1.93838203672203
24.3073580000028,1.93483907845803
24.3199040000029,1.88137261738302
24.3318630000018,1.89039105660049
24.3435890000016,1.80858092941344
24.3581080000028,1.92227768097655
24.3726510000005,1.87203209105064
24.387512000002,1.91229298041435
24.4047640000023,1.88040635603829
24.4211790000014,1.86945539413136
24.4354850000031,1.87332043951028
24.4499560000002,1.82532945938874
24.4638840000033,1.81824354286073
24.4784520000033,1.83273746303166
24.494257000003,1.86333573894808
24.5082300000004,1.89876532158814
24.5232180000022,1.92453229078092
24.538193,1.96511526725953
24.5531560000032,1.92968568461947
24.5685820000023,1.94933299862896
24.5834450000003,1.82532945938874
24.597751000002,1.80246127423015
24.6123480000012,1.99700189163559
24.6264580000006,1.5673376803461
24.6405360000022,1.99893441432505
24.6550450000018,1.81888771709055
24.6694470000006,1.70647931398707
24.6822530000024,1.89296775351977
24.6961800000034,1.85206268992624
24.7120210000016,1.86172530337353
24.7276340000033,1.86526826163754
24.7434610000029,1.85431729973061
24.7579610000029,1.93258446865366
24.7725500000007,1.89844323447323
24.786693,1.92517646501074
24.8003720000014,1.84529886051314
24.8150860000029,1.83853503110004
24.8301480000019,1.77894891484175
24.8458010000028,1.87815174623393
24.8615090000033,1.79440909635741
24.8785930000022,1.82532945938874
24.895120000001,1.82983867899748
24.9098050000034,1.89779906024341
24.9262320000008,1.88362722718739
24.9507440000027,1.8240411109291
24.965188000001,1.75253777141916
24.9797320000008,1.77605013080756
24.9945760000013,1.95255386977806
25.0086550000012,1.95416430535261
25.0231850000024,1.89264566640486
25.0376970000006,1.99249267202686
25.0524130000025,1.66750677308301
25.067443,1.97477788070682
25.0816780000031,1.98283005857957
25.0963310000002,1.89586653755396
25.1109400000013,1.82371902381419
25.1252810000032,1.93194029442384
25.1393289999999,1.9074616736907
25.155,1.96511526725953
25.1695320000015,1.76638751736027
25.1836720000021,1.87815174623393
25.1974520000033,1.7705746498541
25.2121420000009,1.83273746303166
25.2267090000026,1.88942479525576
25.2411970000006,1.92034515828709
25.256939000003,1.89457818909432
25.2715160000026,1.89425610197941
25.285682,1.88362722718739
25.2993280000016,1.81759936863091
25.315432,1.80310544845997
25.3298040000014,1.82565154650365
25.3441590000018,1.85528356107534
25.3600020000003,1.87460878796992
25.3753270000033,1.98830553953303
25.3911700000018,1.77250717254356
25.4068270000033,2.24211018608185
25.4222870000005,1.51097243523691
25.4379200000018,1.970590748213
25.453814000003,1.97477788070682
25.4686760000028,1.78345813445048
25.4883890000023,1.87525296219974
25.5109090000018,1.90778376080561
25.5280500000007,1.93967038518167
25.547932,1.73095793472021
25.5647240000032,1.84143381513422
25.5791020000018,1.81341223613708
25.5930800000019,1.87750757200411
25.6071579999998,1.920667245402
25.6231690000035,1.87525296219974
25.6389700000025,1.90649541234598
25.6542950000018,1.87267626528046
25.6767360000014,1.91454759021872
25.6914200000018,1.90198619273724
25.7087390000001,1.89296775351977
25.7229790000021,1.90585123811616
25.7365530000031,1.89457818909432
25.7519980000034,1.90713958657579
25.7647220000029,1.76670960447518
25.7794730000012,1.79698579327669
25.7937770000026,1.68683199997758
25.8087760000005,1.77637221792247
25.8248600000031,2.14709448718349
25.8398910000026,1.79505327058723
25.8542190000005,1.98605092972866
25.8678560000025,1.75994577506208
25.8815930000022,1.97026866109809
25.8981530000009,1.76799795293482
25.9124690000005,1.90842793503543
25.9308680000007,1.61887161873165
25.9497039999999,1.80374962268979
25.9676480000019,1.59890221760725
25.981882000003,1.9338728171133
25.997568,1.80793675518362
26.0131020000018,1.87138791682082
26.028313000001,1.81502267171163
26.0429660000019,1.84368842493859
26.0579310000017,1.90778376080561
26.079125,1.76767586581991
26.0928310000002,1.87686339777429
26.1068370000012,1.89908740870305
26.1215109999999,1.91422550310381
26.135637000002,1.86784495855682
26.1491510000005,1.80149501288543
26.1628300000019,1.81566684594145
26.1773030000031,1.85850443222444
26.1922480000034,1.8472313832026
26.2070490000024,1.91003837060998
26.221313000001,2.07913410593756
26.2348470000029,1.69585043919506
26.2484760000035,2.00569824373815
26.2629050000012,1.81244597479235
26.276375,2.02695599332219
26.2912520000003,1.77218508542865
26.3063670000024,1.90971628349507
26.3221900000013,1.88813644679612
26.3363060000017,2.00505406950833
26.3503470000029,1.85302895127097
26.3636760000028,1.87686339777429
26.3776040000021,1.89232357928995
26.3922470000014,1.91164880618453
26.4065780000016,1.91164880618453
26.4207400000021,1.92421020366601
26.4354580000006,1.89425610197941
26.4491520000026,1.8407896409044
26.4653170000017,1.81534475882654
26.4790180000029,1.86848913278664
26.4943340000026,1.83209328880184
26.5097030000016,1.85624982242007
26.5240250000022,1.90230827985215
26.5384020000026,1.88459348853212
26.55325,1.88942479525576
26.5704850000031,1.89135731794522
26.5856900000013,1.87460878796992
26.5992760000005,1.91583593867836
26.6143320000023,1.88781435968122
26.6292100000009,1.65108033022261
26.6429740000032,1.96801405129372
26.6566720000021,2.11617412415217
26.6716960000023,1.63851893274114
26.6862820000015,2.34807684688712
26.7007460000031,1.85174060281133
26.7161070000008,1.94772256305441
26.731262000002,1.91132671906962
26.7461950000003,1.78474648291012
26.7604410000034,1.89296775351977
26.7750040000007,1.91197089329944
26.7897160000019,2.16191049446934
26.8044510000013,1.85270686415606
26.8212540000007,1.96769196417881
26.8385390000008,1.90585123811616
26.8568360000029,1.87686339777429
26.8705820000023,1.93548325268785
26.8844330000021,1.83531415995094
26.8978900000006,1.83048285322729
26.9133450000025,1.83917920532986
26.9307350000031,1.80761466806871
26.9445320000015,1.86204739048844
26.9594410000034,1.85624982242007
26.9756500000022,1.88330514007248
26.9914240000024,1.93934829806676
27.0062210000008,1.8771854848892
27.021762000002,2.12261586645036
27.0373060000017,1.60663230836508
27.0517300000004,1.82983867899748
27.0664940000027,2.05465548520442
27.0814050000012,1.94224708210095
27.0970560000017,1.64785945907352
27.1128360000029,1.76284455909627
27.1284539999999,1.970590748213
27.1435340000018,1.71710818877909
27.1577609999999,1.9673698770639
27.1723910000026,1.89618862466887
27.1869550000019,1.88878062102594
27.2014900000021,1.87138791682082
27.2173010000028,1.85689399664989
27.2345200000033,1.87235417816555
27.2511359999999,1.88555974987685
27.2659180000015,1.82436319804401
27.2815470000021,1.83950129244477
27.2982320000008,1.81566684594145
27.3158840000033,1.8440105120535
27.3317390000001,1.83370372437639
27.3486900000013,1.81566684594145
27.3656070000008,1.83177120168693
27.381689000003,1.83144911457202
27.3995910000019,1.83595833418076
27.4157860000022,1.98830553953303
27.4319590000026,1.68296695459867
27.4481900000013,1.65333494002698
27.4657600000016,1.65591163694626
27.4798730000034,2.0340419098502
27.4958570000008,1.87654131065938
27.5099570000023,1.85528356107534
27.524325000003,1.86108112914371
27.5392780000009,2.05014626559569
27.5541610000022,1.87203209105064
27.5675810000002,2.0073086793127
27.5833100000024,1.95319804400788
27.5987810000032,1.68876452266704
27.6141830000021,1.85786025799462
27.6302920000032,1.83917920532986
27.6452300000004,1.83595833418076
27.6602160000019,1.77862682772684
27.6747820000015,1.88459348853212
27.6899150000028,1.9274310748151
27.7077320000008,1.93967038518167
27.7245710000023,1.90713958657579
27.7409260000028,1.90649541234598
27.7572070000023,1.90520706388634
27.7760260000005,1.88523766276194
27.7937990000024,1.85914860645426
27.810188000001,1.87654131065938
27.8263360000029,1.78442439579521
27.8428020000011,1.92356602943619
27.8616570000015,1.84304425070877
27.8773289999999,1.93419490422821
27.8921710000001,1.45911640973645
27.9067810000032,2.13775396085111
27.9219400000013,1.79891831596615
27.9388890000023,1.7773384792672
27.9542110000029,1.8939340148645
27.9732650000006,1.88040635603829
27.9874920000024,1.93161820730893
28.0009640000015,1.90198619273724
28.0139140000008,1.80310544845997
28.0279930000007,1.82597363361856
28.0422070000023,1.82855033053784
28.0572100000009,1.85431729973061
28.0721710000001,1.90424080254161
28.0884310000017,1.93290655576857
28.1045380000025,1.9039187154267
28.1184890000001,1.86784495855682
28.1325700000003,1.86687869721209
28.1472520000003,1.81598893305636
28.1617210000008,1.86913330701645
28.1769110000022,1.85270686415606
28.1912149999999,1.89039105660049
28.2057420000024,1.98766136530321
28.2195800000019,1.83241537591675
28.2352910000011,1.95126552131842
28.2508530000001,1.92839733615983
28.2659840000011,1.73417880586931
28.2813840000033,2.04467078464222
28.2982390000001,2.03822904234403
28.3131970000006,1.37279706294066
28.3279240000024,1.83950129244477
28.3425660000034,2.04692539444659
28.3584260000028,1.94031455941149
28.3735140000023,1.8140564103669
28.388382000003,2.14838283564313
28.4031430000029,1.81083553921781
28.4178020000011,1.86108112914371
28.4325940000005,1.88362722718739
28.4475270000026,1.85174060281133
28.4641300000027,1.86623452298227
28.4785720000006,1.81437849748181
28.4941390000023,1.85882651933935
28.5091710000001,1.84529886051314
28.5236950000003,1.85206268992624
28.5386010000035,1.9174463742529
28.5524070000015,1.88942479525576
28.568188000001,1.8871701854514
28.5816090000011,1.82339693669928
28.5961680000015,1.8204981526651
28.6122710000016,1.79344283501268
28.6272840000018,1.82436319804401
28.6423000000007,1.92292185520637
28.6569050000012,1.86752287144191
28.6734480000027,2.03629651965457
28.6903150000013,1.93258446865366
28.7056120000035,1.97091283532791
28.7205580000021,1.73417880586931
28.7347540000007,1.8871701854514
28.7488960000016,1.79924040308106
28.7627810000032,1.66138711789972
28.7772900000028,1.98379631992429
28.7929600000009,1.80761466806871
28.809745000001,1.96575944148935
28.8249649999998,1.8607590420288
28.8399370000027,2.00376572104869
28.8541550000012,1.89618862466887
28.8681740000024,1.80374962268979
28.8813370000012,1.89296775351977
28.8954000000022,1.79601953193196
28.9088940000013,1.93967038518167
28.9250660000034,1.85560564819025
28.940314000003,1.92549855212565
28.9542890000008,1.91905680982745
28.9687030000016,1.85496147396043
28.9823610000014,1.85045225435169
28.9962440000027,1.81631102017127
29.0121610000022,1.88845853391103
29.0285510000028,1.77637221792247
29.0440490000024,1.82951659188257
29.0594600000009,2.07752367036301
29.0750360000022,1.78861152828904
29.0905520000011,2.16996267234208
29.1070950000025,2.01825964121963
29.122887000002,1.67459268961102
29.1415500000007,1.67781356076011
29.1614700000025,1.62917840640876
29.1773730000034,2.08042245439719
29.1928100000024,1.7705746498541
29.2085850000009,1.85786025799462
29.2242910000011,1.76670960447518
29.2406440000013,1.78667900559958
29.257063000001,1.95609682804206
29.2736640000008,1.87525296219974
29.2899880000018,1.83177120168693
29.3066660000011,1.93934829806676
29.3237810000032,1.90166410562233
29.3394110000022,1.87138791682082
29.355257000003,1.90230827985215
29.3707260000035,1.91132671906962
29.387068,1.91615802579327
29.4008050000034,1.86881121990154
29.415200000003,1.83885711821495
29.4302650000006,1.80310544845997
29.4461220000014,1.84111172801931
29.4621600000002,1.717430275894
29.4791670000032,1.62434709968511
29.4976579999998,1.43495987611823
29.5141740000024,2.2140886070847
29.531069000002,1.46523606491974
29.550268000003,1.76445499467081
29.5682210000008,1.51612582907546
29.5836510000005,2.00634241796797
29.5969590000026,1.78088143753121
29.6109450000003,1.84046755378949
29.626268000003,1.86236947760335
29.6432890000008,1.85270686415606
29.6610830000006,1.82822824342293
29.6769850000031,1.85270686415606
29.6955800000019,1.80986927787308
29.7160280000009,1.870743742591
29.7372790000029,1.8971548860136
29.7598740000017,1.84594303474296
29.7766050000004,1.85109642858151
29.7993200000003,1.85238477704115
29.8214550000019,1.8939340148645
29.845563000001,1.84980808012187
29.8662800000012,1.93516116557294
29.8943430000022,1.98669510395848
29.9270880000032,1.69681670053978
30.0004930000007,1.87138791682082
30.0465290000029,1.79859622885124
30.0901510000005,1.93290655576857
30.1192200000025,1.88201679161284
30.1466540000029,1.7741176081181
30.2112020000033,1.8372466826404
30.244825000003,1.79762996750651
30.2742810000032,2.04595913310186
30.3029970000014,2.07591323478846
30.3284160000011,1.74899481315515
30.3513520000018,1.89490027620923
30.3741490000002,1.89490027620923
30.3979750000015,1.89328984063468
30.4233800000027,1.94933299862896
30.4435440000035,1.86204739048844
30.4671560000032,1.85818234510953
30.4857690000013,1.8507743414666
30.5059570000023,1.91454759021872
30.5276730000004,1.76832004004973
30.5444539999999,1.83338163726148
30.5639310000017,1.8240411109291
30.5875200000033,1.89747697312851
30.6057020000033,1.91454759021872
30.6251280000024,1.91325924175908
30.6450850000009,1.70486887841253
30.6619550000019,2.05691009500879
30.6799130000025,1.83209328880184
30.6977100000009,1.6307888419833
30.717007000003,1.66138711789972
30.7378830000013,1.60276726298616
30.7532010000013,1.92807524904492
30.7721900000013,1.90585123811616
30.7901760000028,2.14709448718349
30.8094800000004,2.23373592109419
30.8286390000023,1.8240411109291
30.8470760000013,1.83209328880184
30.8625450000018,1.7238720181922
30.8855980000012,1.88169470449793
30.9062790000029,1.92936359750456
30.9298000000007,1.83885711821495
30.9560720000006,1.90456288965652
30.9878710000031,1.89908740870305
31.0151210000031,1.82951659188257
31.0385780000016,1.90875002215034
31.0593090000004,1.84658720897278
31.0785530000031,1.89651071178378
31.0960970000029,1.9673698770639
31.1134640000015,2.03661860676948
31.1310870000012,1.79312074789777
31.1482690000013,1.75479238122352
31.1656130000018,1.65108033022261
31.183631000001,1.564116809197
31.2011190000027,1.91970098405727
31.2221460000016,1.97896501320065
31.2388040000014,1.97767666474101
31.2557290000021,2.02985477735638
31.2718010000028,2.04144991349312
31.288814000003,2.020514251024
31.3058930000029,1.74190889662714
31.3223859999999,1.77959308907157
31.3400800000019,1.93355072999839
31.3563770000003,2.00247737258906
31.3743790000007,1.93161820730893
31.3913920000009,1.87557504931465
31.409870000001,1.8140564103669
31.4272080000006,1.84497677339823
31.4453490000032,1.78861152828904
31.4644270000011,1.80986927787308
31.4819910000004,1.85141851569642
31.4957390000001,1.88523766276194
31.5074670000002,1.78603483136976
31.5185800000019,1.97799875185592
31.5292609999999,1.75285985853407
31.5421560000032,1.69907131034415
31.5537890000008,2.28559194659465
31.5657240000032,1.66815094731282
31.5765370000005,1.74255307085696
31.5882970000021,2.06431809865171
31.5988650000021,1.68586573863286
31.6108490000032,2.02148051236873
31.621387000002,1.69649461342487
31.6338390000016,2.23148131128983
31.6445200000033,1.68457739017322
31.6552910000011,1.7873231798294
31.6658480000012,1.92002307117218
31.677518000003,1.78667900559958
31.688382000003,1.99700189163559
31.6986390000023,1.99571354317595
31.7099910000004,1.66686259885319
31.7225530000031,1.96608152860426
31.7328730000034,1.82371902381419
31.7436970000006,1.90971628349507
31.7551290000007,1.88040635603829
31.7652920000032,1.8472313832026
31.7780650000013,1.83048285322729
31.7904450000003,1.87267626528046
31.8030580000021,1.92098933251691
31.8139050000012,1.78571274425485
31.8247230000012,1.88233887872775
31.8366610000022,1.92195559386164
31.8469480000027,1.80954719075817
31.8574630000032,1.88555974987685
31.8685,1.85624982242007
31.8786300000027,1.81856562997564
31.888950000003,1.91325924175908
31.8990580000021,1.83466998572112
31.9096700000018,1.84046755378949
31.9213320000023,1.93644951403257
31.934495000001,1.88040635603829
31.9453730000034,1.78281396022066
31.956189000003,2.09459428745322
31.9659360000007,1.61790535738692
31.9772470000014,1.79859622885124
31.9883150000013,2.11842873395653
31.9980540000014,1.57603403244866
32.0140090000033,1.98959388799267
32.0315830000006,1.76445499467081
32.0460890000016,1.91132671906962
32.0592330000028,1.98315214569448
32.0720870000012,2.09040715495939
32.0839040000029,1.59954639183707
32.0971120000035,1.92904151038965
32.1100380000025,1.85238477704115
32.1258840000033,2.06592853422626
32.1409820000008,1.77766056638211
32.1557650000006,1.91551385156345
32.1697590000033,1.8472313832026
32.1842630000003,1.87364252662519
32.1986740000024,1.84851973166224
32.2142250000015,1.84690929608769
32.2291380000003,1.80536005826434
32.2432200000025,1.82758406919311
32.2573430000022,1.88684809833649
32.2718210000023,1.89167940506013
32.2865850000009,1.9039187154267
32.3011740000024,1.87589713642956
32.3148450000025,1.82371902381419
32.3307660000026,1.81180180056253
32.3454600000009,1.8308049403422
32.3614990000017,1.767353778705
32.3774870000035,1.77862682772684
32.3950550000034,1.89844323447323
32.4133859999999,1.6407735425455
32.4307330000028,1.70519096552744
32.445318,1.85174060281133
32.460318,1.71904071146855
32.4755290000029,1.87525296219974
32.4913030000031,1.81180180056253
32.5088460000008,1.89167940506013
32.523495000001,1.90585123811616
32.5388000000007,1.97123492244282
32.5542740000002,1.91648011290818
32.5697030000016,1.88459348853212
32.5850080000013,1.90134201850742
32.5997100000009,1.83756876975531
32.6146480000019,1.81502267171163
32.6289539999999,1.8272619820782
32.6433590000011,1.83821294398513
32.6581400000006,1.84690929608769
32.6727690000013,1.9006978442776
32.6878550000004,1.89908740870305
32.7013300000019,1.88652601122158
32.7148520000018,1.87332043951028
32.7293440000005,1.8105134521029
32.744256000001,1.82017606555019
32.7593230000027,1.84207798936404
32.7745329999998,1.95029925997369
32.7897030000016,1.9638269187999
32.8043150000013,1.86848913278664
32.8180020000003,1.80181710000033
32.8320380000025,2.00891911488725
32.8455260000005,1.75447029410861
32.8587890000008,1.98830553953303
32.8747430000007,1.88942479525576
32.8893660000004,1.91422550310381
32.904324000001,1.84368842493859
32.9193590000011,1.85592773530516
32.9358289999999,1.90295245408197
32.9531000000015,1.90875002215034
33.0171280000024,1.8507743414666
33.0373230000027,1.91970098405727
33.0534110000022,1.91036045772489
33.0693500000015,1.89328984063468
33.0828470000029,1.84207798936404
33.0974930000007,1.83273746303166
33.1118410000019,1.81373432325199
33.1265340000018,1.83016076611239
33.1413270000033,1.87944009469356
33.1571760000028,1.86236947760335
33.1741600000001,1.87976218180847
33.1890030000024,1.90134201850742
33.2033010000028,1.91776846136781
33.2185990000032,1.88878062102594
33.2327360000014,1.86269156471826
33.2480960000008,1.84755347031751
33.2622970000021,1.80858092941344
33.2767020000033,1.84433259916841
33.2917230000012,1.84272216359386
33.306370000001,1.90649541234598
33.3205560000017,1.91776846136781
33.3346350000016,1.87493087508483
33.3479210000001,1.84884181877715
33.3618420000002,1.82371902381419
33.3759920000024,1.83982337955968
33.3911740000024,1.87493087508483
33.4062970000021,1.90424080254161
33.4208330000006,1.93032985884929
33.4348320000023,1.91132671906962
33.4480150000006,1.80278336134506
33.4637780000009,1.84626512185787
33.4771240000017,1.84240007647895
33.4909370000027,1.8871701854514
33.5055260000005,1.91937889694236
33.5195789999999,1.91358132887399
33.5336590000018,1.83531415995094
33.5485050000027,1.83692459552549
33.5626020000018,1.82178650112473
33.5769970000014,1.83660250841058
33.5922950000018,1.85914860645426
33.6074800000005,1.89328984063468
33.6217050000019,1.91164880618453
33.6354450000003,1.87589713642956
33.6491630000025,1.86333573894808
33.6633520000018,1.82661780784838
33.6775710000023,1.81824354286073
33.6909020000026,1.88652601122158
33.7063950000033,1.90907210926525
33.7225540000014,1.9139034159889
33.7370730000027,1.91648011290818
33.7515250000022,1.89264566640486
33.7655180000029,1.84884181877715
33.7792650000006,1.81470058459672
33.7943320000023,1.81920980420546
33.8101070000008,1.83982337955968
33.8265910000019,1.83950129244477
33.8417940000035,1.86655661009718
33.8573650000021,1.86784495855682
33.8727550000027,1.90327454119688
33.8881540000029,1.91261506752926
33.9027810000032,1.87364252662519
33.9181620000005,1.85947069356916
33.9335080000013,1.85979278068407
33.947439000003,1.85496147396043
33.9617580000013,1.82017606555019
33.9806570000015,1.81276806190726
34.0071980000027,1.81019136498799
34.0258090000004,1.85560564819025
34.0437320000008,1.81856562997564
34.0583480000012,1.83563624706585
34.0725440000035,1.89586653755396
34.0865720000006,1.96157230899553
34.1006210000031,1.86687869721209
34.1150370000005,1.85624982242007
34.1301010000035,1.82629572073347
34.1449840000011,1.8140564103669
34.1600870000012,1.85238477704115
34.1740540000014,1.89264566640486
34.187949000001,1.93934829806676
34.201132000003,1.85463938684552
34.2143770000003,1.84884181877715
34.2278420000002,1.83821294398513
34.2422230000012,1.8639799131779
34.2564270000011,1.89876532158814
34.2707770000026,1.90713958657579
34.2846440000013,1.87009956836118
34.2981070000008,1.84884181877715
34.3136140000001,1.82500737227383
34.3284880000018,1.83370372437639
34.3436500000022,1.81534475882654
34.3589300000034,1.84851973166224
34.3763350000009,1.84948599300697
34.3909980000034,1.85979278068407
34.4082880000025,1.85657190953498
34.4253370000012,1.88233887872775
34.4421750000007,1.84851973166224
34.4586300000027,1.85560564819025
34.4752140000016,1.91712428713799
34.4927240000032,1.9006978442776
34.5128310000002,1.76252247198136
34.5337380000018,1.92356602943619
34.5554870000035,2.15353622948169
34.5737829999998,1.91261506752926
34.5891920000017,2.02019216390909
34.6045540000014,1.73031376049039
34.6212950000018,1.99378102048649
34.638887000002,1.90971628349507
34.6548990000002,2.01181789892144
34.6707920000032,1.85753817087971
34.687313000001,1.91648011290818
34.703075000003,1.88491557564703
34.7193600000031,1.92421020366601
34.7347840000018,1.8372466826404
34.7512170000002,1.86172530337353
34.7668080000021,1.84594303474296
34.7830580000021,1.85753817087971
34.7976510000005,1.82693989496329
34.8123960000016,1.8072925809538
34.8278020000011,1.82855033053784
34.8435720000006,1.82178650112473
34.8596030000001,1.8472313832026
34.875137000002,1.84658720897278
34.8915610000007,1.87235417816555
34.9067630000003,1.88684809833649
34.9230050000027,1.88008426892338
34.9385789999999,2.03017686447129
34.9540360000022,1.89200149217504
34.9708570000008,1.76638751736027
34.987870000001,1.92195559386164
35.006074000001,1.91519176444854
35.0235030000024,1.85302895127097
35.0446340000033,1.62112622853601
35.0640580000021,1.71324314340018
35.0792740000002,1.87750757200411
35.0966980000027,1.56089593804791
35.1146040000021,1.95029925997369
35.1303170000017,1.91003837060998
35.1501700000018,1.74802855181042
35.165251000002,1.93161820730893
35.182689000003,1.72354993107729
35.2006660000011,1.92356602943619
35.2156700000018,1.84014546667458
35.2308160000034,1.87203209105064
35.2469360000007,1.79344283501268
35.2602950000018,1.82887241765275
35.274313000001,1.8739646137401
35.2894539999999,1.89522236332414
35.3050880000032,1.91132671906962
35.3203570000008,1.89876532158814
35.3367420000024,1.89779906024341
35.351251000002,1.87332043951028
35.365126000002,1.82758406919311
35.3795480000004,1.81920980420546
35.3941830000021,1.82017606555019
35.4107470000014,1.82919450476766
35.4256350000016,1.88910270814085
35.4419400000013,1.91937889694236
35.4573410000019,2.09878141994704
35.4729850000031,2.20120512248832
35.487188000001,1.70970018513617
35.5015910000019,1.6040556114458
35.5153440000005,1.93322864288348
35.5298790000007,1.7306358476053
35.5446090000011,1.90295245408197
35.5595380000025,2.20603642921196
35.5737609999999,1.564116809197
35.5883220000006,1.81276806190726
35.6034370000027,2.01439459584071
35.6175140000023,1.88684809833649
35.6320760000013,1.97220118378755
35.6457090000026,1.74448559354641
35.6598490000032,1.87782965911902
35.6746550000012,1.90327454119688
35.6903859999999,1.87171000393573
35.7046970000006,1.90005367004778
35.7191760000028,1.87782965911902
35.7333980000019,1.83305955014657
35.7484300000034,1.82758406919311
35.7634480000027,1.80793675518362
35.7813770000003,1.84465468628332
35.7964790000021,1.80213918711524
35.8123630000018,1.80922510364326
35.8278170000017,1.81470058459672
35.8449760000035,1.89103523083031
35.8632700000033,1.90939419638016
35.8803330000006,1.55864132824354
35.898495000001,1.72966958626057
35.915944000002,2.04467078464222
35.9368390000015,2.29235577600775
35.9534260000028,1.81115762633272
35.9730520000011,1.98508466838393
35.9893110000007,1.84304425070877
36.0071220000014,2.09137341630412
36.021625,1.79827414173633
36.037689000003,2.09620472302777
36.0542840000019,1.88105053026811
36.0714220000021,1.62338083834038
36.086949000001,1.98862762664794
36.1031780000031,1.8472313832026
36.1193710000031,2.01149581180653
36.1392270000018,1.89167940506013
36.159568,1.89876532158814
36.1766760000028,1.79634161904687
36.1968940000013,1.79440909635741
36.2188360000029,1.94643421459477
36.2371510000005,1.91003837060998
36.2550210000016,1.89586653755396
36.2719120000005,1.90456288965652
36.287444000002,1.91358132887399
36.3037580000013,1.87299835239537
36.3212180000022,1.80858092941344
36.338314000003,2.05014626559569
36.3557360000014,2.01600503141526
36.3750440000035,2.06528435999644
36.3948830000013,1.69134121958632
36.4118560000025,1.70100383303361
36.4267860000022,1.98540675549884
36.4454110000022,1.57828864225303
36.4680240000002,1.91454759021872
36.4835230000019,1.67137181846192
36.4985840000026,1.86848913278664
36.5144480000027,1.8272619820782
36.530443,1.83950129244477
36.5464040000029,1.85624982242007
36.5623150000013,1.86784495855682
36.5793370000012,1.86623452298227
36.5974240000024,1.82339693669928
36.6129300000034,1.82210858823964
36.6280250000022,1.81147971344762
36.6467670000009,1.8072925809538
36.6636170000024,1.82629572073347
36.6807220000029,1.81953189132037
36.6985580000021,1.80278336134506
36.7174790000021,1.84819764454733
36.7387100000009,1.91422550310381
36.7559400000013,1.88040635603829
36.7725660000034,1.96865822552354
36.7892950000018,1.94675630170968
36.806068,1.64012936831568
36.8232540000007,2.06850523114554
36.8402039999999,1.71420940474491
36.8535720000006,2.23534635666874
36.8696040000021,1.80278336134506
36.8894160000011,1.87815174623393
36.9055100000016,2.1306680443231
36.9198430000022,1.74867272604024
36.9357670000009,1.98830553953303
36.9510340000018,1.64335023946478
36.965563000001,1.89747697312851
36.979700000003,1.91261506752926
36.9940480000004,1.72612662799656
37.0097800000012,1.95126552131842
37.0252600000016,1.87235417816555
37.0395720000006,1.90842793503543
37.053699000001,1.88201679161284
37.0698600000031,1.89490027620923
37.0838940000013,1.89264566640486
37.0974460000023,1.82178650112473
37.112495000001,1.79795205462142
37.126131000001,1.867200784327
37.1401560000032,1.9074616736907
37.1546350000016,1.92646481347037
37.1687380000018,1.87557504931465
37.1820200000033,1.84690929608769
37.1965670000017,1.8240411109291
37.2107090000026,1.82082023978001
37.2258530000001,1.87911800757865
37.2405109999999,1.88266096584266
37.2545219999999,2.05658800789388
37.2690670000017,1.65881042098044
37.282449000001,1.82210858823964
37.2962300000004,1.84787555743242
37.3105470000021,1.82758406919311
37.3243440000005,2.173827717721
37.3387080000006,1.53480688174022
37.3531960000023,2.11552994992235
37.367064000003,1.75511446833843
37.3799310000017,1.87879592046374
37.3951440000013,1.8005287515407
37.4116540000029,2.16223258158425
37.4295660000034,1.61178570220363
37.4448969999999,1.9474004759395
37.4602580000013,1.77379552100319
37.4765700000003,1.80342753557488
37.4924610000029,1.89522236332414
37.5070880000033,1.88845853391103
37.5225080000013,1.8807284431532
37.5384290000014,1.89779906024341
37.5538450000025,1.92710898770019
37.5684560000002,1.85753817087971
37.5824620000012,1.84787555743242
37.5974140000008,1.81663310728618
37.6115780000016,1.82758406919311
37.62625,1.85174060281133
37.6410860000029,1.87364252662519
37.657120000001,1.89167940506013
37.6732240000032,1.95480847958243
37.6885109999999,1.78539065713994
37.7043160000034,2.03178730004583
37.7189040000029,1.90198619273724
37.7329550000019,1.96447109302972
37.7468410000019,1.9306519459642
37.7616670000032,1.69456209073542
37.7765580000021,1.72999167337548
37.7912310000025,1.83209328880184
37.8069970000014,2.19508546730503
37.8216680000015,1.79505327058723
37.836064000003,1.78378022156539
37.8499880000018,1.96286065745517
37.8633060000017,1.86881121990154
37.8778160000034,1.83853503110004
37.8939460000023,1.79312074789777
37.9082860000022,1.88942479525576
37.9233790000007,1.9039187154267
37.9435850000009,1.88781435968122
37.9586040000021,1.91036045772489
37.9749680000022,1.86977748124627
37.990501000002,1.99861232721014
38.006626000002,1.86430200029281
38.0231480000019,1.88878062102594
38.0396060000025,1.88137261738302
38.0548350000009,1.92453229078092
38.0699820000008,1.867200784327
38.0848040000014,1.8572160837648
38.0990899999998,1.82822824342293
38.1163580000028,1.82210858823964
38.1300990000032,1.81792145574582
38.1451460000016,1.80600423249416
38.1595770000033,1.97477788070682
38.1745520000011,1.68264486748376
38.1894250000007,1.76445499467081
38.2046469999999,2.13839813508093
38.2192270000018,1.86784495855682
38.2343060000017,1.91680220002308
38.2493540000021,1.71420940474491
38.2642630000003,1.92453229078092
38.2806870000027,1.71163270782563
38.296018000003,1.93161820730893
38.3101170000024,1.89908740870305
38.3255920000002,1.94643421459477
38.340825000003,1.86333573894808
38.3559050000012,1.90971628349507
38.3701800000034,1.89844323447323
38.3851540000029,1.92646481347037
38.3985230000019,1.80181710000033
38.414450000003,1.84433259916841
38.4289200000018,1.77347343388828
38.4434180000015,1.83434789860621
38.4577600000016,1.92163350674673
38.4721650000028,1.8907131437154
38.4867740000002,1.86365782606299
38.5032810000032,1.87171000393573
38.5171510000005,1.84980808012187
38.5317110000029,1.7973078803916
38.5465520000011,1.81115762633272
38.5623590000011,1.81147971344762
38.577693,1.82275276246946
38.5926860000007,2.03243147427565
38.6075460000001,1.92936359750456
38.6222370000035,1.66879512154264
38.6365280000009,2.04660330733168
38.6511450000033,1.77572804369265
38.6661670000032,1.81598893305636
38.6813450000025,1.41563464922365
38.6968460000008,1.85689399664989
38.711564000003,1.85753817087971
38.7288260000013,2.0005448498996
38.7437440000027,1.7805593504163
38.7579990000017,1.94450169190532
38.7722270000018,1.89973158293287
38.7864470000006,1.91454759021872
38.800569000002,1.81212388767744
38.8148100000024,1.8507743414666
38.8303780000024,1.75221568430425
38.8449300000034,1.85979278068407
38.8599570000023,1.8372466826404
38.8753050000034,1.86365782606299
38.8896380000003,1.93870412383694
38.9039410000034,1.90359662831179
38.919450000003,1.88459348853212
38.9369210000001,1.89618862466887
38.9515460000001,1.85947069356916
38.9654079999998,1.80922510364326
38.9800780000016,1.80632631960907
38.994949000001,1.82500737227383
39.0094560000002,1.83789085687022
39.0254770000018,1.92485437789583
39.0417430000007,1.817277281516
39.0569710000008,2.12261586645036
39.0721050000004,1.86816704567173
39.0875780000016,1.55026706325589
39.1029530000016,1.92002307117218
39.1179040000029,2.18252406982356
39.1314770000018,1.560573850933
39.1475940000005,1.95641891515697
39.164064000003,1.85947069356916
39.1792050000019,1.65945459521026
39.1939450000003,1.91358132887399
39.2084150000028,1.86269156471826
39.2229060000032,1.92453229078092
39.2375460000001,1.89039105660049
39.251637000002,1.86430200029281
39.2650390000008,1.82500737227383
39.2802730000019,1.78378022156539
39.2946030000001,1.94031455941149
39.3087980000004,1.87686339777429
39.3240920000002,1.91100463195471
39.3418859999999,1.89747697312851
39.3564840000011,1.86140321625862
39.3724300000034,1.89039105660049
39.3860670000017,1.83853503110004
39.400018000003,1.84368842493859
39.4138630000018,1.867200784327
39.4282580000013,1.81631102017127
39.441995000001,1.88137261738302
39.4560590000004,1.96125022188062
39.4705260000005,1.86043695491389
39.4845880000032,1.8440105120535
39.4988630000018,1.84948599300697
39.5124710000008,1.77669430503738
39.5282400000021,1.75608072968316
39.5435210000016,1.85013016723678
39.5586750000007,1.85914860645426
39.5731400000006,1.91712428713799
39.5871620000005,1.85045225435169
39.6006030000001,1.88169470449793
39.6173460000008,1.84851973166224
39.6314610000029,1.81309014902217
39.6467220000029,1.77443969523301
39.6615930000022,1.88588183699176
39.6759210000001,1.92356602943619
39.6901760000028,1.90424080254161
39.7057400000021,2.00795285354252
39.719700000003,1.66525216327864
39.7334580000006,2.01793755410472
39.7469960000031,1.92678690058528
39.7608430000022,1.87235417816555
39.7747890000008,1.5773223809083
39.7889140000008,2.12905760874855
39.8051430000029,1.7705746498541
39.821950000003,1.92421020366601
39.8386410000026,2.1106986431987
39.8544340000004,1.81985397843528
39.8699090000018,1.89264566640486
39.884949000001,1.81244597479235
39.8996710000001,1.86011486779898
39.9149010000005,1.84014546667458
39.9345460000001,1.78764526694431
39.9505800000019,1.7873231798294
39.968199000001,1.88974688237067
39.983574000001,1.81276806190726
40.000876000002,1.85238477704115
40.0164710000008,1.83048285322729
40.0329820000008,1.82500737227383
40.0503620000035,1.81276806190726
40.0695390000008,1.9106825448398
40.0876150000021,1.9039187154267
40.1036780000031,1.87654131065938
40.1199350000024,1.88233887872775
40.1381530000009,1.89876532158814
40.1547780000009,1.88813644679612
40.1707170000002,1.87460878796992
40.1861790000014,1.86236947760335
40.199314000003,1.79762996750651
40.2142790000029,1.86816704567173
40.2282280000001,1.97477788070682
40.2421300000027,1.86655661009718
40.2559550000019,1.58988377838978
40.2703510000035,1.8140564103669
40.284875,2.01697129275999
40.2981130000018,1.81470058459672
40.3120530000031,1.85689399664989
40.3257770000026,1.97123492244282
40.340064000003,1.83853503110004
40.3553490000032,1.89425610197941
40.3698960000016,1.84014546667458
40.3836440000013,1.87267626528046
40.3994210000001,1.86204739048844
40.4141770000011,1.82565154650365
40.428818,1.82855033053784
40.4439010000005,1.80181710000033
40.4587900000028,1.93161820730893
40.4736750000007,1.91519176444854
40.4887600000016,1.88169470449793
40.5028950000033,1.90520706388634
40.515751000002,1.81502267171163
40.5305940000005,1.8871701854514
40.5451850000024,1.7940870092425
40.5597750000022,1.88555974987685
40.5754990000017,1.87976218180847
40.5900510000028,1.90681749946089
40.6049690000005,1.90842793503543
40.619382000003,1.85431729973061
40.6323859999999,1.81888771709055
40.6479190000035,1.80986927787308
40.6634860000014,1.82371902381419
40.6792810000032,1.8340258114913
40.6936720000021,1.90681749946089
40.7083980000019,1.85914860645426
40.7226840000004,1.99249267202686
40.7374050000012,1.91261506752926
40.7524930000007,2.07752367036301
40.7665789999999,1.76703169159009
40.7805580000021,1.85850443222444
40.7952790000029,1.79827414173633
40.8097030000016,1.49357973103179
40.8255540000014,1.93355072999839
40.8398330000006,1.69134121958632
40.8548890000023,1.94095873364131
40.870376000002,1.77250717254356
40.8857030000016,2.08847463226994
40.899625,1.58859542993014
40.9138630000018,1.83209328880184
40.9308740000017,1.85270686415606
40.9498370000012,1.79762996750651
40.967443,1.86108112914371
40.9868890000023,1.8607590420288
41.0039290000014,1.80117292577052
41.0202850000002,1.91712428713799
41.0399570000023,1.8807284431532
41.0615320000015,1.8440105120535
41.0794530000016,1.82468528515892
41.096699000001,1.82629572073347
41.1128460000008,1.82887241765275
41.1281380000003,1.85786025799462
41.1427090000026,1.88878062102594
41.1570109999999,1.8939340148645
41.1730040000007,1.89812114735832
41.188063000001,1.89973158293287
41.2034460000023,1.77443969523301
41.2184210000001,1.99345893337158
41.2320329999998,1.47232198144775
41.2462640000023,1.97832083897083
41.2608310000002,2.35806154744932
41.274881000001,1.64753737195861
41.289818,1.68039025767939
41.3045050000027,2.2037818194076
41.320557,1.73933219970786
41.3374050000012,2.05658800789388
41.3550240000002,1.68200069325394
41.3724920000024,1.82887241765275
41.3891770000011,1.95352013112279
41.405768000003,1.89361192774959
41.422507000003,1.87235417816555
41.4384900000021,1.94836673728423
41.4582140000015,1.93580533980276
41.4821950000003,1.81115762633272
41.5049630000033,1.85592773530516
41.5249510000013,1.89328984063468
41.5456040000021,1.85302895127097
41.5659770000018,1.82339693669928
41.5864160000011,1.84948599300697
41.6060560000017,1.9139034159889
41.6270170000009,1.8907131437154
41.6477680000029,1.81631102017127
41.6650510000028,1.81502267171163
41.6836110000014,1.79022196386359
41.6997490000017,1.91648011290818
41.7147110000029,1.75543655545334
41.7306160000004,2.1606221460097
41.7502210000008,1.78506857002503
41.7674040000029,2.02244677371345
41.7819940000027,1.54801245345152
41.797450000003,2.14194109334494
41.814382000003,1.94772256305441
41.8301420000009,1.97091283532791
41.846012000002,1.70873392379144
41.8618990000002,1.98894971376285
41.8810810000002,1.78506857002503
41.8992820000015,1.7841023086803
41.9179290000014,1.81502267171163
41.937382000003,1.89039105660049
41.9528399999999,1.88845853391103
41.9714520000033,1.85431729973061
41.9914980000034,1.8907131437154
42.0095880000032,1.88362722718739
42.0277440000027,1.87042165547609
42.0461660000011,1.82565154650365
42.0668220000006,1.81824354286073
42.0810300000012,1.81566684594145
42.0962140000016,1.84336633782368
42.1115040000007,1.86043695491389
42.1272190000005,1.89844323447323
42.143006000001,1.89683279889869
42.1587490000017,1.9606060476508
42.1756070000008,1.96608152860426
42.1931300000027,1.81985397843528
42.2122090000026,1.7274149764562
42.2303160000034,1.74480768066132
42.2491970000006,1.73192419606494
42.2728320000023,1.74867272604024
42.2930150000006,1.99023806222249
42.3117840000019,1.82339693669928
42.3292380000018,1.90424080254161
42.3448930000029,1.82983867899748
42.3607200000025,1.90842793503543
42.3762280000001,1.89522236332414
42.3925910000019,1.89940949581796
42.4079010000005,1.90649541234598
42.4264280000031,1.89554445043905
42.4455230000019,1.87525296219974
42.4642090000026,1.82790615630802
42.4801840000004,1.84916390589206
42.4985430000015,1.83016076611239
42.5170960000008,1.82210858823964
42.5356210000031,1.84014546667458
42.5516130000018,1.82146441400982
42.568637000002,1.84787555743242
42.5843770000003,1.79376492212759
42.6017970000021,1.86494617452263
42.6175990000032,1.70261426860816
42.6344360000007,1.96479318014462
42.6500150000006,1.86011486779898
42.666563000001,1.91841263559763
42.683626000002,1.34284296125406
42.7010240000002,1.93419490422821
42.7173330000006,2.16513136561844
42.7335700000003,1.95641891515697
42.7501740000024,1.79891831596615
42.7673550000004,1.83499207283603
42.7840580000021,1.88974688237067
42.8007770000026,1.88040635603829
42.8172970000021,1.73933219970786
42.8345109999999,1.85818234510953
42.8538720000014,1.8739646137401
42.8771950000003,1.8939340148645
42.8936870000027,1.84980808012187
42.9093859999999,1.91454759021872
42.9295870000012,1.82371902381419
42.9511140000001,1.77476178234792
42.965382000003,1.83950129244477
42.9803370000012,1.81631102017127
42.995012000002,1.87235417816555
43.0104590000026,1.88008426892338
43.0260830000006,1.90005367004778
43.0411950000003,1.90810584792052
43.0557300000004,1.90037575716269
43.0700920000002,1.86784495855682
43.0846020000018,1.77766056638211
43.0988120000027,1.92549855212565
43.1136140000001,1.7473843775806
43.1282750000022,1.89683279889869
43.1425510000028,1.89457818909432
43.1574130000025,1.72805915068602
43.1725770000033,1.99088223645231
43.1880050000027,1.82082023978001
43.2046750000007,2.00859702777234
43.2199450000003,1.86784495855682
43.2358470000029,1.93290655576857
43.2504040000029,1.6974608747696
43.2649940000027,1.88974688237067
43.2793780000024,1.84948599300697
43.2944550000019,1.89457818909432
43.3088770000003,1.92678690058528
43.3237370000035,1.87525296219974
43.3407650000006,1.88330514007248
43.3550300000012,1.93226238153875
43.3697320000008,1.88137261738302
43.3841300000027,1.80632631960907
43.3995930000022,1.79634161904687
43.4140980000012,1.82146441400982
43.4292800000012,1.84980808012187
43.4444730000012,1.87332043951028
43.4593720000014,1.89200149217504
43.4751530000009,1.90037575716269
43.4911270000003,1.90327454119688
43.5077110000029,1.90552915100125
43.5251430000029,1.89425610197941
43.5407530000024,1.91680220002308
43.5549070000015,1.90617332523107
43.5698010000028,1.81083553921781
43.5849970000014,1.81695519440109
43.5990789999999,1.79924040308106
43.6134270000011,1.70551305264235
43.6273500000015,1.80697049383889
43.6443090000004,2.29428829869721
43.6598330000006,1.80793675518362
43.6758710000031,1.63111092909821
43.6918790000007,1.87428670085501
43.7065520000011,1.96286065745517
43.7208420000002,1.97477788070682
43.7387700000033,1.84497677339823
43.7535170000009,1.90327454119688
43.7679450000003,1.81534475882654
43.781575000003,1.7841023086803
43.8000950000025,1.81695519440109
43.8158690000027,1.79924040308106
43.8314060000032,1.88652601122158
43.8464140000008,1.8472313832026
43.8616790000014,1.85431729973061
43.8764090000018,1.89457818909432
43.8924420000017,1.90005367004778
43.9076030000001,1.93516116557294
43.9257900000028,1.89006896948558
43.9415899999998,1.91229298041435
43.9566850000024,1.9039187154267
43.9713300000019,1.88523766276194
43.9871750000007,1.83660250841058
44.0147230000012,1.82661780784838
44.0453670000024,1.94224708210095
44.0816590000018,1.62660170948948
44.1241870000027,1.564116809197
44.1395100000016,2.03178730004583
44.1532100000009,1.92002307117218
44.1678800000027,1.85141851569642
44.1812100000009,1.83982337955968
44.195700000003,2.16899641099735
44.2102850000001,1.82758406919311
44.2244240000024,1.83305955014657
44.2406060000025,1.96092813476571
44.2559570000023,1.96157230899553
44.2719000000022,1.88523766276194
44.2866040000021,1.85141851569642
44.3006300000027,1.81373432325199
44.3142090000026,1.90778376080561
44.3298930000029,1.82243067535455
44.3446690000035,1.85496147396043
44.3589270000011,1.97606622916646
44.374313000001,1.84497677339823
44.3896070000008,1.90037575716269
44.4041750000007,1.86011486779898
44.418507000003,1.83917920532986
44.431324000001,1.82114232689491
44.445689000003,1.85206268992624
44.4596650000028,1.90778376080561
44.4744590000026,1.89844323447323
44.490132000003,1.90263036696706
44.5057580000013,1.88330514007248
44.5211740000024,1.95223178266315
44.5354780000001,1.77089673696901
44.5502080000006,1.74545185489114
44.5638390000016,2.12229377933545
44.5780700000003,1.64206189100514
44.5924079999998,1.9438575176755
44.606944000002,1.81373432325199
44.6216590000018,2.05143461405532
44.6369160000011,1.71356523051509
44.6517140000015,1.88878062102594
44.667768000003,1.83499207283603
44.6841270000003,1.80149501288543
44.6978420000002,1.87879592046374
44.7125210000016,1.91003837060998
44.7277950000018,1.87009956836118
44.7443270000033,1.8739646137401
44.759882000003,1.91841263559763
44.7759300000034,1.87750757200411
44.7909820000008,1.9139034159889
44.8058620000035,1.86977748124627
44.821443,1.85109642858151
44.8367790000029,1.84465468628332
44.8523020000011,1.80632631960907
44.8667910000011,1.83144911457202
44.8814840000011,1.84562094762805
44.8966280000024,1.870743742591
44.9122300000004,1.88974688237067
44.9294260000028,1.88169470449793
44.9454860000014,1.92324394232128
44.964506000001,1.91905680982745
44.9831730000004,1.95287595689297
44.9985510000028,1.99539145606104
45.013876000002,1.44172370553133
45.0304230000004,2.09781515860232
45.0483920000009,1.92839733615983
45.0635600000024,1.82210858823964
45.0797890000008,1.72805915068602
45.0951579999998,1.94321334344568
45.1099910000004,1.83048285322729
45.1250210000016,1.99635771740577
45.1400620000027,1.90230827985215
45.1549630000032,1.90585123811616
45.1693010000028,1.83789085687022
45.1829020000026,1.84046755378949
45.1989110000022,1.80278336134506
45.2152430000007,1.85914860645426
45.2307130000032,1.81341223613708
45.2464870000035,1.84175590224913
45.2620240000002,1.86301365183317
45.2783790000007,1.88845853391103
45.2943280000016,1.88169470449793
45.3101770000011,1.89039105660049
45.3263980000019,1.89618862466887
45.3435800000019,1.89522236332414
45.3604100000002,1.90101993139251
45.3787200000025,1.87009956836118
45.3971700000018,1.89264566640486
45.4141130000018,1.82822824342293
45.4311490000002,1.98476258126902
45.451995000001,1.60437769856071
45.4727460000031,1.72516036665183
45.4913300000019,1.92324394232128
45.507193,1.86784495855682
45.5233110000007,1.86913330701645
45.538512000002,1.86687869721209
45.5554890000001,1.81856562997564
45.571620000001,1.88878062102594
45.5869090000018,1.9606060476508
45.6013740000017,1.79344283501268
45.6146380000003,1.86172530337353
45.6284170000032,1.90552915100125
45.6424310000017,1.90939419638016
45.6562170000002,1.86913330701645
45.6707640000023,1.85914860645426
45.6848580000028,1.84014546667458
45.6999940000027,1.82597363361856
45.7148270000033,1.84111172801931
45.7294890000001,1.85850443222444
45.7437430000007,1.88233887872775
45.7575210000016,1.90230827985215
45.7714670000002,1.85753817087971
45.7861810000017,1.83241537591675
45.8018969999999,1.82146441400982
45.8161980000027,1.83563624706585
45.8305380000025,1.86526826163754
45.8455340000018,1.91873472271254
45.8602330000028,1.99313684625668
45.8756170000024,1.84562094762805
45.8901560000032,1.82146441400982
45.9046570000015,1.89457818909432
45.919256000001,1.50163190890453
45.9362360000014,1.69456209073542
45.9515660000034,2.00537615662324
45.9661490000002,1.81856562997564
45.9806579999998,1.89618862466887
45.9956170000024,1.98218588434975
46.011064000003,1.86172530337353
46.0251060000025,1.97638831628137
46.0403910000026,1.9338728171133
46.0554670000002,1.84690929608769
46.0718570000008,1.87654131065938
46.0862910000011,1.83209328880184
46.1015350000001,1.85947069356916
46.1145500000007,1.8939340148645
46.1296060000025,1.82082023978001
46.1444610000029,1.89876532158814
46.1598020000011,1.89683279889869
46.174762000002,1.93516116557294
46.1898880000003,1.93258446865366
46.205057,1.8739646137401
46.2190440000035,1.88974688237067
46.2329330000021,1.85592773530516
46.247194000002,1.88942479525576
46.2623710000031,1.86977748124627
46.2767080000006,1.91003837060998
46.2909140000008,1.92292185520637
46.3065040000007,1.92678690058528
46.3218230000027,1.70841183667653
46.3366359999999,1.94546795325004
46.3513430000022,1.72097323415801
46.3651220000014,1.80761466806871
46.3796670000032,2.04563704598695
46.3963380000032,1.7274149764562
46.410574000001,2.04338243618258
46.4241150000021,1.81115762633272
46.4383840000033,1.62144831565092
46.4527890000008,1.90649541234598
46.471063000001,1.96414900591481
46.4847110000029,1.91615802579327
46.4993399999999,1.81147971344762
46.5142230000012,1.86236947760335
46.5288090000004,1.91422550310381
46.5427250000015,1.93548325268785
46.557444000002,1.85045225435169
46.5716670000032,1.86816704567173
46.5863580000028,1.84368842493859
46.6012440000027,1.71034435936599
46.614949000001,1.85657190953498
46.6306490000002,1.84465468628332
46.6448050000034,1.88169470449793
46.6589400000013,1.89908740870305
46.6744970000014,1.90971628349507
46.6892420000024,1.870743742591
46.7044840000011,1.84304425070877
46.7190250000022,1.79859622885124
46.7339649999998,1.81212388767744
46.7489790000021,1.80986927787308
46.7638680000007,1.82371902381419
46.7792730000019,1.87332043951028
46.7941350000016,1.94353543056059
46.8090320000015,2.07526906055864
46.8239110000022,1.76284455909627
46.8385390000008,1.68908660978195
46.8544260000028,1.91551385156345
46.8739990000017,2.03146521293093
46.8935020000003,1.79312074789777
46.9128950000033,1.93355072999839
46.933314000003,1.73611132855876
46.949507000003,1.84851973166224
46.9645860000029,1.90005367004778
46.9817330000028,1.85624982242007
47.0025310000032,1.86494617452263
47.0219590000026,1.89747697312851
47.0382370000035,1.85818234510953
47.0574820000008,1.81212388767744
47.0748530000001,1.90134201850742
47.090949000001,1.84529886051314
47.1075789999999,1.93161820730893
47.1236590000019,1.90101993139251
47.1401490000002,1.870743742591
47.1556790000014,1.81953189132037
47.1702960000001,1.79022196386359
47.1838010000028,1.81985397843528
47.1972240000032,1.84175590224913
47.2114190000035,1.90488497677143
47.225199000001,1.87750757200411
47.2393960000016,1.86591243586736
47.2535520000011,1.83950129244477
47.2684160000011,1.81470058459672
47.2820030000024,1.85367312550079
47.2971080000028,1.85914860645426
47.311745000001,1.90617332523107
47.3257390000001,1.89747697312851
47.3397010000013,2.04853583002114
47.3537970000021,1.70164800726343
47.3667890000008,1.90939419638016
47.3805780000016,1.83144911457202
47.3950030000024,1.61500657335273
47.4088910000026,2.14322944180458
47.4231010000035,1.44172370553133
47.4406620000005,1.99764606586541
47.4882020000033,1.81276806190726
47.5129260000028,1.86430200029281
47.5266960000023,1.90327454119688
47.5404000000022,1.85914860645426
47.5551760000028,1.86913330701645
47.5697590000033,1.87138791682082
47.5844010000005,1.83982337955968
47.5984079999998,1.81083553921781
47.6130530000031,1.91680220002308
47.6277590000033,1.90101993139251
47.6423610000014,1.92517646501074
47.6565530000031,1.870743742591
47.6726620000005,1.89618862466887
47.6884110000022,1.86623452298227
47.7028570000008,1.75672490391298
47.7181190000027,1.79344283501268
47.7346400000006,1.83885711821495
47.7498500000015,1.81502267171163
47.7630960000008,1.88459348853212
47.7785230000019,1.90230827985215
47.7925610000007,1.93838203672203
47.807637000002,1.92678690058528
47.8226620000005,1.93548325268785
47.8384570000023,1.81663310728618
47.8536020000018,1.86848913278664
47.8692910000011,2.04628122021677
47.8844670000002,1.46265936800046
47.899012000002,2.06141931461752
47.9135600000024,1.76123412352172
47.9295030000024,1.76670960447518
47.9471830000021,2.01858172833454
47.9640130000003,1.86945539413136
47.9819300000034,1.80761466806871
47.9980310000032,1.84819764454733
48.0155090000033,1.87106582970591
48.0311740000024,1.81276806190726
48.0515910000019,1.7841023086803
48.068501000002,1.8407896409044
48.0905360000022,1.83917920532986
48.1093280000016,1.91132671906962
48.129,1.89135731794522
48.1447810000032,1.92582063924056
48.1603850000016,1.90037575716269
48.1762970000021,1.8771854848892
48.1941800000034,1.8871701854514
48.2099870000035,1.93226238153875
48.2263980000019,1.90971628349507
48.2433050000034,1.91358132887399
48.2638360000029,1.88298305295757
48.2842760000005,1.81985397843528
48.3020260000005,1.8472313832026
48.3252130000032,1.84819764454733
48.3499220000021,1.62273666411056
48.3703690000027,1.55896341535845
48.3883960000016,1.82275276246946
48.4047660000026,2.14483987737913
48.421182,1.83434789860621
48.4365300000012,1.72258366973256
48.4530950000025,1.78281396022066
48.4680800000019,1.88105053026811
48.4952470000014,1.92163350674673
48.5276100000031,1.90971628349507
48.5499230000004,1.83917920532986
48.5691610000022,1.85463938684552
48.5864910000004,1.80697049383889
48.6028640000001,1.81663310728618
48.6206020000018,1.86655661009718
48.6404230000004,1.88201679161284
48.6638710000031,1.85818234510953
48.6808230000027,1.87106582970591
48.6978010000028,1.86365782606299
48.7153690000027,1.86043695491389
48.7355530000031,1.79344283501268
48.7542630000003,1.84690929608769
48.7719420000017,1.86140321625862
48.7883950000033,1.84787555743242
48.8043610000014,1.84658720897278
48.8208650000021,1.8407896409044
48.8374280000031,1.84787555743242
48.8542940000035,1.85045225435169
48.8732030000016,1.8440105120535
48.8916220000014,1.8971548860136
48.9100360000022,1.92195559386164
48.9282770000026,1.87944009469356
48.9445540000014,1.90617332523107
48.9618420000002,1.91229298041435
48.9785510000028,1.9039187154267
48.9930430000015,1.91132671906962
49.0089180000015,1.9006978442776
49.0285200000033,1.91970098405727
49.0460310000032,1.92002307117218
49.0645020000003,1.87493087508483
49.0792039999999,1.9006978442776
49.0944980000034,1.91229298041435
49.1105800000019,1.92195559386164
49.1269410000034,1.93999247229658
49.1438850000016,1.92646481347037
49.1594820000008,1.91712428713799
49.1781280000024,1.92549855212565
49.1952030000016,1.90166410562233
49.210689000003,1.92582063924056
49.2257540000007,1.92614272635547
49.2483220000006,1.88652601122158
49.2708310000002,1.79569744481705
49.2894770000018,1.87493087508483
49.3044890000001,1.8572160837648
49.3184960000031,1.82790615630802
49.3334880000018,1.83756876975531
49.3621590000018,1.93161820730893
49.3916040000021,1.87589713642956
49.4347440000027,1.82017606555019
49.4707590000033,1.82983867899748
49.4854730000012,1.8272619820782
49.5002140000015,1.83692459552549
49.5205930000022,1.84658720897278
49.5356720000021,1.84111172801931
49.5498540000021,1.86108112914371
49.5640260000005,1.87042165547609
49.5790080000013,1.8907131437154
49.5927380000018,1.90939419638016
49.6069870000035,1.88298305295757
49.6216870000027,1.84433259916841
49.6382840000018,1.86655661009718
49.6540520000011,1.82983867899748
49.66975,1.8372466826404
49.6852719999999,1.83177120168693
49.7019600000009,1.8105134521029
49.7170810000002,1.84046755378949
49.7309210000001,1.85818234510953
49.7495990000032,1.84465468628332
49.7650789999999,1.85914860645426
49.7810610000007,1.87235417816555
49.7950820000023,1.90359662831179
49.8104770000018,1.9174463742529
49.8271710000001,1.9139034159889
49.841318,1.89779906024341
49.8564280000031,1.86816704567173
49.871313000001,1.83499207283603
49.8854140000008,1.81920980420546
49.8994360000007,1.85689399664989
49.9136460000016,1.88298305295757
49.9300470000021,1.88105053026811
49.9457130000032,1.90037575716269
49.9594560000002,1.90971628349507
49.974506000001,1.88330514007248
49.9885040000007,1.86011486779898
50.0023340000026,1.82178650112473
50.0173289999999,1.8308049403422
50.0313660000004,1.85335103838588
50.0467670000009,1.87911800757865
50.0642850000001,1.87106582970591
50.0789060000032,1.89554445043905
50.0952590000033,1.89779906024341
50.1114740000032,1.91937889694236
50.1260200000033,1.89232357928995
50.1418280000016,1.89103523083031
50.1587820000015,1.89039105660049
50.1751380000003,1.88491557564703
50.1908540000021,1.87976218180847
50.2073340000026,1.89006896948558
50.2233260000013,1.85689399664989
50.2401270000003,1.88491557564703
50.2562719999999,1.86043695491389
50.2713850000016,1.84207798936404
50.2868790000007,1.81180180056253
50.3018450000025,1.83756876975531
50.3171300000027,1.83885711821495
50.3316350000016,1.87976218180847
50.3479770000018,1.86494617452263
50.3660290000029,1.84980808012187
50.3847719999999,1.82210858823964
50.4007110000029,1.82532945938874
50.4181960000023,1.84819764454733
50.4325700000003,1.86365782606299
50.451063000001,1.8308049403422
50.468432,1.82339693669928
50.4853390000016,1.81598893305636
50.4995,1.84336633782368
50.5167410000004,1.85850443222444
50.530637000002,1.87589713642956
50.5455720000006,1.91197089329944
50.5600240000002,1.91454759021872
50.5746359999999,1.86591243586736
50.5914990000017,1.91551385156345
50.6091560000032,1.90875002215034
50.6257420000024,1.88684809833649
50.641262000002,1.87654131065938
50.6580890000016,1.87847383334883
50.6733380000032,1.88298305295757
50.6905830000006,1.87750757200411
50.7068490000032,1.87364252662519
50.7247850000001,1.8907131437154
50.7422820000015,1.89844323447323
50.7600150000006,1.9074616736907
50.7758300000019,1.89747697312851
50.7928680000007,1.9039187154267
50.810131000001,1.88974688237067
50.8275400000028,1.91422550310381
50.8489670000002,1.87299835239537
50.8693590000011,1.817277281516
50.8872740000002,1.84336633782368
50.903813000001,1.81437849748181
50.9239600000009,1.85947069356916
50.9424570000023,1.9139034159889
50.9607330000028,1.90005367004778
50.9803210000023,1.90585123811616
51.0045990000032,1.88105053026811
51.0190130000003,1.79698579327669
51.0330380000025,1.86623452298227
51.0474590000026,1.90552915100125
51.0613900000006,1.98444049415411
51.0767520000003,1.92421020366601
51.0925910000019,1.94289125633077
51.1089960000031,1.77894891484175
51.1232340000011,1.8739646137401
51.1379450000003,1.94095873364131
51.1526540000029,1.99378102048649
51.1672400000021,1.78088143753121
51.181443,1.91229298041435
51.1964120000005,2.06238557596225
51.2109260000028,1.6607429436699
51.2250890000016,1.90101993139251
51.2399750000015,1.86236947760335
51.255387000002,1.9039187154267
51.2711710000001,1.82693989496329
51.2858220000006,1.89296775351977
51.2997230000012,1.82887241765275
51.3135260000005,1.86784495855682
51.3283840000033,1.90778376080561
51.342632000003,1.86172530337353
51.3574860000014,1.89135731794522
51.3717820000015,1.8140564103669
51.3866050000004,1.80181710000033
51.402625,1.82371902381419
51.4165400000028,1.84594303474296
51.430512000002,1.87944009469356
51.4446120000035,1.91841263559763
51.4611410000026,1.91712428713799
51.4771490000002,1.90810584792052
51.4926440000012,1.86977748124627
51.509694000002,1.91229298041435
51.5276910000034,1.91680220002308
51.5432540000007,1.91583593867836
51.5571050000004,1.85174060281133
51.5727420000024,1.867200784327
51.5918060000017,2.03017686447129
51.6109780000001,1.82855033053784
51.6267920000032,1.84046755378949
51.6424670000002,1.92646481347037
51.6569360000007,1.80342753557488
51.6722650000006,1.90456288965652
51.6885580000021,1.77025256273919
51.7035720000006,1.83660250841058
51.7234900000021,1.88910270814085
51.7375470000021,1.80697049383889
51.7523880000003,1.8639799131779
51.7665600000024,1.81631102017127
51.7819560000002,1.86816704567173
51.7964030000009,1.88201679161284
51.8113090000004,1.97799875185592
51.8258730000034,1.86494617452263
51.8398780000024,1.84884181877715
51.8545210000016,1.84755347031751
51.8689260000028,1.82339693669928
51.8824990000017,1.87042165547609
51.8969079999998,1.92582063924056
51.9113510000035,1.89135731794522
51.9296640000008,1.8771854848892
51.9452660000026,1.89876532158814
51.9596830000021,1.90778376080561
51.9743570000008,1.89006896948558
51.9895780000016,1.87493087508483
52.0036340000033,1.82855033053784
52.0186380000003,1.817277281516
52.0324090000018,1.84207798936404
52.0477380000018,1.94095873364131
52.0625899999999,1.8939340148645
52.0766380000003,1.90842793503543
52.0901850000024,1.90649541234598
52.1046900000013,1.78216978599085
52.1194660000019,1.89006896948558
52.1327310000025,1.88749227256631
52.1465150000006,1.8807284431532
52.1607890000008,2.07108192806481
52.175939000003,1.84497677339823
52.189882000003,1.97316744513228
52.2044000000022,1.70486887841253
52.2192550000027,2.19250877038576
52.2329649999999,1.48488337892923
52.247893000003,1.99957858855487
52.2626340000033,1.91712428713799
52.2762990000024,1.85592773530516
52.2910500000007,1.94160290787113
52.305444000002,1.8072925809538
52.3201230000034,1.87428670085501
52.3337940000035,1.8072925809538
52.3469900000021,1.9174463742529
52.3610840000026,1.86108112914371
52.3751960000023,1.96704778994899
52.3916700000018,1.89522236332414
52.4074070000015,1.83917920532986
52.4221780000031,1.88040635603829
52.4357400000021,1.81437849748181
52.4746700000018,1.86752287144191
52.5059050000012,1.8040717098047
52.5222920000032,1.88201679161284
52.537324000001,1.82146441400982
52.5515,1.82146441400982
52.5641010000035,1.85431729973061
52.5796950000003,1.91583593867836
52.5939410000034,1.9139034159889
52.6084880000018,1.90101993139251
52.6234520000033,1.87911800757865
52.6377460000031,1.84111172801931
52.6518550000004,1.79247657366795
52.6658110000007,1.87138791682082
52.6802990000024,1.88266096584266
52.6959010000005,2.14773866141331
52.7105109999999,1.6472152848437
52.724132000003,2.1606221460097
52.7394760000035,1.96253857034026
52.7541550000012,1.71420940474491
52.7682890000008,1.87332043951028
52.7840600000024,2.00473198239342
52.7976690000035,1.75157151007443
52.8118580000028,2.04016156503349
52.8248380000032,1.88781435968122
52.840182,1.8771854848892
52.8568830000013,1.84046755378949
52.8730820000023,1.81792145574582
52.8882050000019,1.80181710000033
52.902756000001,1.82822824342293
52.9177020000033,1.84690929608769
52.9331630000025,1.86236947760335
52.949814000003,1.84819764454733
52.9653550000005,1.86623452298227
52.9807740000002,1.89135731794522
52.9952840000018,1.90295245408197
53.0098550000004,1.89039105660049
53.0235580000021,1.8539952126157
53.0379620000012,1.82822824342293
53.0522829999998,1.81115762633272
53.0698210000023,1.81631102017127
53.0834850000031,1.87654131065938
53.0991350000016,1.84690929608769
53.1134270000011,1.93483907845803
53.1278780000024,1.870743742591
53.1429170000032,1.74029846105259
53.1576230000034,2.14967118410277
53.1726750000007,1.663963814819
53.1869200000018,1.84111172801931
53.2013670000024,1.89779906024341
53.2183710000031,1.78957778963377
53.2326080000028,1.72902541203075
53.2473590000011,1.94868882439914
53.2618540000021,1.81598893305636
53.2762310000025,1.98025336166029
53.2908540000021,1.8607590420288
53.3050800000019,1.92292185520637
53.3191280000024,1.75253777141916
53.3323950000033,1.88330514007248
53.3467380000018,1.85496147396043
53.3608100000024,1.89618862466887
53.376256000001,1.97252327090246
53.3900370000005,1.80825884229853
53.4048780000024,1.86108112914371
53.4193580000028,1.83917920532986
53.4328990000002,1.79279866078286
53.446439000003,1.91003837060998
53.4611920000017,1.91036045772489
53.477870000001,1.91164880618453
53.4956190000027,1.89039105660049
53.5257050000019,1.89618862466887
53.5409240000024,1.86526826163754
53.5553390000016,1.83209328880184
53.5700090000033,1.79924040308106
53.5851160000004,1.82919450476766
53.5989260000028,1.83177120168693
53.6144030000009,1.89457818909432
53.6293940000012,1.99957858855487
53.6438020000011,1.81502267171163
53.6581390000023,1.67942399633466
53.6724780000001,1.91809054848272
53.688443,1.64302815234987
53.7042010000013,1.91229298041435
53.7196340000033,2.00440989527851
53.7340280000009,1.78539065713994
53.7486870000027,1.91551385156345
53.7649130000025,1.94933299862896
53.7815950000025,1.72644871511147
53.7964190000035,1.92034515828709
53.8110970000029,1.87235417816555
53.8258790000007,1.92871942327474
53.8398410000019,1.85302895127097
53.854813000001,1.84207798936404
53.8693690000027,1.80310544845997
53.8830530000031,1.85850443222444
53.898,1.87332043951028
53.9132170000002,1.90778376080561
53.9302700000033,1.8771854848892
53.9450550000034,1.9139034159889
53.9600080000013,1.90617332523107
53.975314000003,1.90488497677143
53.9910910000019,1.90327454119688
54.0107470000014,1.90810584792052
54.0284480000027,1.89361192774959
54.0510490000024,1.80149501288543
54.0690789999999,1.82790615630802
54.084875,1.88137261738302
54.0998690000027,1.81502267171163
54.118943,1.71420940474491
54.1359750000015,2.06045305327279
54.1570290000029,1.96092813476571
54.1774670000002,1.84594303474296
54.1945400000028,2.1106986431987
54.2105410000011,1.79762996750651
54.2259460000023,2.04563704598695
54.2414980000034,1.91519176444854
54.2572590000033,1.86591243586736
54.2733530000001,1.78474648291012
54.2913650000021,2.02598973197746
54.3075990000032,1.86881121990154
54.3257170000002,1.95996187342098
54.3456480000019,1.9438575176755
54.3634660000019,1.90456288965652
54.3847470000014,1.77315134677337
54.4090789999999,1.93290655576857
54.4290730000027,1.94192499498604
54.4503710000031,1.83821294398513
54.4689600000009,1.85431729973061
54.492382000003,1.89328984063468
54.5133230000027,1.88491557564703
54.5309960000031,1.89747697312851
54.5472980000004,1.88588183699176
54.5659590000026,1.84368842493859
54.5924760000035,1.89006896948558
54.6101640000008,1.82178650112473
54.6265820000023,2.03371982273529
54.6428280000016,2.05948679192807
54.658949000001,1.72354993107729
54.6750950000025,1.91003837060998
54.6916520000026,1.85045225435169
54.7089570000023,1.80568214537925
54.7257420000024,1.85206268992624
54.7431910000034,2.11649621126708
54.7616090000011,1.99829024009523
54.7783060000017,1.73192419606494
54.7957640000023,1.85850443222444
54.8116980000027,1.9773545776261
54.8280899999999,1.91358132887399
54.8441670000032,1.92034515828709
54.8598450000025,1.87525296219974
54.8754539999999,1.87332043951028
54.8910450000018,1.86269156471826
54.9091620000005,1.88298305295757
54.9284520000033,1.92259976809146
54.9445580000021,1.88813644679612
54.9605670000017,1.93516116557294
54.978745000001,1.92485437789583
54.9963320000023,1.90424080254161
55.0144930000007,1.86591243586736
55.0289280000031,1.88298305295757
55.0427250000015,1.93773786249221
55.0581290000007,1.86655661009718
55.077189000003,1.90617332523107
55.0915490000024,1.88266096584266
55.106876000002,1.86462408740772
55.1212940000035,1.8939340148645
55.1360910000019,1.76960838850937
55.1508150000013,2.00151111124433
55.1634010000005,1.86140321625862
55.1785580000021,1.6005126531818
55.1931350000016,2.11778455972672
55.2077590000033,1.98637301684357
55.2230770000033,1.54446949518751
55.2373270000033,2.08944089361466
55.2516570000015,1.76252247198136
55.265063000001,1.84626512185787
55.2801460000016,2.1574012748606
55.2953289999999,1.77186299831374
55.3095920000002,1.88684809833649
55.3238990000002,1.970590748213
55.3385810000002,1.89167940506013
55.3539710000008,1.84787555743242
55.3683720000014,1.81888771709055
55.3811710000001,1.89747697312851
55.3992640000023,1.84787555743242
55.4132650000006,1.90552915100125
55.4271220000014,1.92485437789583
55.4412829999998,1.90552915100125
55.455757000003,1.86687869721209
55.4696100000031,1.81147971344762
55.483564000003,1.84433259916841
55.499,1.87138791682082
55.513313000001,1.8939340148645
55.5277990000024,1.92421020366601
55.5423990000002,1.91937889694236
55.5577060000002,1.88427140141721
55.5721910000034,1.85109642858151
55.5864010000005,1.81920980420546
55.6002350000031,1.85592773530516
55.6146750000007,1.85109642858151
55.6291170000024,1.92614272635547
55.6432540000007,1.91809054848272
55.6567480000034,1.87009956836118
55.6723740000017,1.86913330701645
55.6868890000023,1.84626512185787
55.7008480000012,1.92936359750456
55.7151270000003,1.73417880586931
55.7303960000016,1.86333573894808
55.7461120000035,1.99120432356722
55.7613160000034,1.90263036696706
55.7768340000026,1.65011406887788
55.7925950000025,2.14806074852822
55.8074840000011,1.90295245408197
55.8234600000009,1.68876452266704
55.8381520000026,1.86011486779898
55.8525780000016,1.9039187154267
55.8663940000013,1.90649541234598
55.8834660000019,1.75994577506208
55.8973850000016,1.86430200029281
55.9141130000018,1.88910270814085
55.9299920000024,1.89940949581796
55.9459450000003,1.91422550310381
55.9602300000005,1.82371902381419
55.9760350000002,1.9973239787505
55.9920550000034,1.8871701854514
56.0076420000009,1.85335103838588
56.0267650000006,1.89812114735832
56.0467320000008,1.89844323447323
56.0640440000035,1.87235417816555
56.0797660000026,1.88491557564703
56.0989970000014,1.81824354286073
56.1175280000009,1.79376492212759
56.1356110000014,1.82983867899748
56.1516800000034,1.82597363361856
56.1685700000003,1.81856562997564
56.1877960000001,1.83112702745711
56.2076860000007,1.90327454119688
56.2253380000032,1.90585123811616
56.2427250000015,1.88781435968122
56.2607170000002,1.9538422182377
56.2769700000025,1.94643421459477
56.2952060000002,2.08299915131647
56.3126620000005,1.9606060476508
56.3302780000009,1.75801325237262
56.3466160000004,1.52546635540784
56.365631000001,1.86816704567173
56.3831790000014,1.84690929608769
56.3996180000007,1.98540675549884
56.4141720000021,1.86977748124627
56.4305020000003,1.90198619273724
56.4465440000035,1.91036045772489
56.4620190000012,1.90810584792052
56.4770100000016,1.92614272635547
56.4917520000003,1.86687869721209
56.5073710000031,1.89651071178378
56.5281430000029,1.92227768097655
56.5428670000024,1.89457818909432
56.5580650000013,1.88555974987685
56.5729920000024,1.84336633782368
56.5877430000007,1.83273746303166
56.6027740000002,1.81566684594145
56.6183470000029,1.83917920532986
56.6323710000031,1.84304425070877
56.6466960000023,1.92195559386164
56.6622770000026,1.93290655576857
56.677506000001,1.88813644679612
56.6933550000004,1.8939340148645
56.7076810000017,1.87847383334883
56.7224870000035,1.85238477704115
56.7372350000031,1.83531415995094
56.7537660000026,1.81695519440109
56.7698850000016,1.81019136498799
56.7870260000005,1.867200784327
56.8012090000026,1.85496147396043
56.8176100000031,1.82114232689491
56.8313150000013,1.71839653723873
56.8472580000013,2.09137341630412
56.8629860000014,1.61597283469746
56.8787090000026,1.90359662831179
56.893824000001,1.97960918743047
56.9098880000003,2.01310624738107
56.9282180000022,1.92807524904492
56.9436790000014,1.84529886051314
56.9610270000026,1.90842793503543
56.9751810000017,1.87493087508483
56.9897210000008,1.91100463195471
57.0063540000021,1.85818234510953
57.021631000001,1.86752287144191
57.0378910000026,1.84658720897278
57.0530590000004,1.82661780784838
57.0680140000023,1.78828944117413
57.083318,1.88233887872775
57.0976290000007,1.83338163726148
57.1132170000002,1.91293715464417
57.1287240000032,1.88459348853212
57.1432870000005,1.90971628349507
57.1578420000002,1.870743742591
57.1726010000035,1.86140321625862
57.1876490000002,1.85463938684552
57.2030020000003,1.84433259916841
57.2182480000034,1.83756876975531
57.2330420000032,1.84658720897278
57.2475190000013,1.87171000393573
57.2649130000025,1.87750757200411
57.2845899999999,1.85914860645426
57.3022530000024,1.71420940474491
57.319189000003,1.67620312518557
57.3355020000003,1.81598893305636
57.3604040000029,1.83048285322729
57.3785800000019,1.82532945938874
57.3970760000013,1.76542125601554
57.4148020000011,1.78764526694431
57.4309250000007,1.83950129244477
57.4491430000029,1.72226158261765
57.4690219999999,1.81244597479235
57.4854820000008,1.82275276246946
57.5006040000021,1.79376492212759
57.5153460000008,1.78925570251886
57.5325950000025,1.84497677339823
57.5531340000033,1.77282925965847
57.5705990000032,1.86752287144191
57.5888330000006,1.83789085687022
57.605819000002,1.88974688237067
57.6228969999999,1.87042165547609
57.6397030000016,1.88169470449793
57.656443,1.87138791682082
57.6735329999998,1.87364252662519
57.6904970000014,1.88845853391103
57.7075500000007,1.89683279889869
57.7233990000002,1.86462408740772
57.7414350000024,1.90359662831179
57.7574830000028,1.88201679161284
57.7750820000023,1.90424080254161
57.7917740000002,1.90424080254161
57.8087719999999,1.89618862466887
57.825375,1.9438575176755
57.8410899999999,1.86591243586736
57.8570930000022,2.07301445075427
57.8751100000031,2.1206833437609
57.8907290000021,1.64753737195861
57.9071480000019,2.09201759053394
57.9273310000002,1.77250717254356
57.9452350000031,1.83756876975531
57.9635940000005,1.69907131034415
57.9821740000024,1.94611212747986
58.0005600000024,1.8272619820782
58.0140899999999,1.66976138288737
58.0282320000008,1.92131141963182
58.0450920000002,1.90939419638016
58.0590880000032,1.93483907845803
58.0753360000029,1.92098933251691
58.0905430000015,1.91100463195471
58.104813000001,1.84111172801931
58.1184250000007,1.82919450476766
58.1404090000018,1.92485437789583
58.1558500000015,1.86687869721209
58.1719020000026,1.90424080254161
58.1868420000002,1.70873392379144
58.2005620000027,1.83370372437639
58.2146490000002,1.83563624706585
58.2305470000021,1.87493087508483
58.2456100000031,1.89006896948558
58.411126000002,1.92646481347037
58.4251710000001,1.66009876944008
58.4400920000002,1.89200149217504
58.4554730000012,1.69134121958632
58.4704340000004,1.97993127454538
58.4851900000013,1.82275276246946
58.4998950000033,1.80890301652835
58.5136550000012,1.93000777173438
58.5276520000026,1.93709368826239
58.5430170000009,1.98540675549884
58.5566359999999,1.86591243586736
58.5706530000009,1.91776846136781
58.5859530000016,1.83789085687022
58.6038950000033,1.90198619273724
58.6212020000033,1.82693989496329
58.6375360000022,1.87654131065938
58.6536130000018,1.87042165547609
58.6678560000025,1.80922510364326
58.681700000003,1.83595833418076
58.6969770000018,1.85592773530516
58.7135160000026,1.85270686415606
58.7274630000032,1.9074616736907
58.7420480000004,1.8939340148645
58.7567520000003,1.90552915100125
58.7734200000018,1.89844323447323
58.7880530000031,1.86623452298227
58.8033560000025,1.83048285322729
58.8180860000029,1.82243067535455
58.8310560000017,1.85979278068407
58.8458980000019,1.86172530337353
58.8600670000017,1.96962448686827
58.8770320000015,2.00924120200216
58.8918990000002,1.78088143753121
58.9071720000021,1.7973078803916
58.9247390000001,2.07269236363936
58.9476960000023,2.14194109334494
58.9645410000011,1.70164800726343
58.9806270000003,1.69713878765469
58.9964970000014,1.86430200029281
59.012944000002,1.93967038518167
59.0283490000032,1.86559034875245
59.0436150000021,1.90585123811616
59.058693,1.92034515828709
59.0731120000035,1.89361192774959
59.0879820000008,1.88555974987685
59.1017650000006,1.82371902381419
59.1151130000018,1.84851973166224
59.1293440000005,1.87364252662519
59.1429640000015,1.88749227256631
59.1582430000007,1.92485437789583
59.1741130000018,1.870743742591
59.189251000002,1.8939340148645
59.2041650000028,1.86172530337353
59.2193260000013,1.85463938684552
59.2343399999999,1.78667900559958
59.2476170000024,1.7905440509785
59.2626190000027,1.87332043951028
59.2773260000013,1.85431729973061
59.291512000002,1.90649541234598
59.3068210000023,1.86559034875245
59.3218170000017,1.87138791682082
59.3367770000026,1.83789085687022
59.3508300000019,1.81502267171163
59.3659820000008,1.83499207283603
59.3813350000009,1.82758406919311
59.3975870000012,1.81695519440109
59.4124000000022,1.90134201850742
59.4279090000018,1.78088143753121
59.4441010000035,2.05497757231933
59.4595350000002,1.9006978442776
59.4756290000007,1.6939179165056
59.4935380000025,1.9506213470886
59.5133620000035,1.8971548860136
59.5333380000032,1.84755347031751
59.5526270000003,1.79537535770214
59.5678770000003,1.9474004759395
59.581256000001,1.81759936863091
59.5962170000002,1.86913330701645
59.6115480000004,1.89328984063468
59.6261540000029,1.9174463742529
59.6405329999998,1.88845853391103
59.655699000001,1.85045225435169
59.6706170000024,1.90263036696706
59.6863310000002,1.85013016723678
59.7022380000018,1.81147971344762
59.7173270000033,1.8040717098047
59.7339670000002,1.86752287144191
59.747824000001,1.85463938684552
59.7620650000013,1.87976218180847
59.7769040000029,1.90359662831179
59.7927540000007,1.92292185520637
59.8086900000013,1.90037575716269
59.8253160000034,1.87750757200411
59.8402350000031,1.87428670085501
59.8555780000016,1.87654131065938
59.8707030000016,1.84368842493859
59.8863440000005,1.80568214537925
59.9014480000027,1.83917920532986
59.9159220000021,1.81534475882654
59.9319660000019,1.84046755378949
59.9464539999999,1.84143381513422
59.9616130000018,1.99764606586541
59.9776070000008,1.71807445012382
59.9926110000014,2.03468608408002
60.0094260000028,1.74996107449988
