Tiempo (s),Voltaje (V)
0.0658699999973178,0.0110831921338104
2.55950599999726,2.28144673991483
2.66235899999738,0.726297533605248
2.70587799999863,2.95744483434828
2.73034300000221,0.0400132104405202
2.75161500000209,0.687724175862968
2.77872699999809,0.667151718400419
2.79691499999911,0.0493351052282378
2.81883500000089,1.58069740759674
2.83739299999923,2.87483355985023
2.85698399999738,3.00823308870895
2.87478700000048,2.99537530279486
2.89133600000292,2.98926785448566
2.9070380000025,3.01787642814452
2.92318699999899,2.99408952420345
2.94152099999785,2.97255273279734
2.95990500000119,2.11493841232732
2.9785169999972,0.388137764064595
2.99543400000036,0.241559004643932
3.01291700000316,0.0621928911423311
3.03181599999964,-0.00370326166739687
3.04910100000352,-0.0165610475814901
3.06665900000185,0.25505967985373
3.08727400000393,2.6572155332542
3.11017400000244,1.61316331702983
3.1265680000037,2.02300524304155
3.14308100000024,2.04743503627833
3.15988700000197,1.78320753574371
3.17717899999768,1.26825320988428
3.19635400000215,0.0493351052282378
3.21441600000113,0.0162263064994477
3.23033600000292,0.0332628728356212
3.24620300000161,0.0528709963546135
3.26196899999678,0.266310242528562
3.27843699999899,0.318062830832787
3.29487900000066,0.707010854734108
3.3129469999969,0.0628357804380357
3.32981300000101,0.0490136605803855
3.34574599999934,0.067978894803673
3.36153999999911,0.411281778709963
3.37857299999893,0.473320595745463
3.39745000000298,0.0236195334000513
3.41533500000089,0.0281197584699839
3.43110199999809,0.011726081429515
3.44737900000066,0.0229766441043466
3.46409000000358,0.0226551994564943
3.48141899999976,0.00947596889454871
3.49839500000328,-0.0040247063152492
3.5152349999994,0.0991590256453492
3.53264599999785,0.40806733223144
3.54884700000286,-0.00981070997659117
3.56508399999887,-0.00177459378028288
3.58171400000155,0.00947596889454871
3.59831499999762,-0.00113170448457822
3.61492400000244,0.00368996523320675
3.63183600000292,0.0560854428331368
3.64941399999708,0.0261910905828699
3.66708900000155,0.337349509703927
3.6830719999969,0.204271425493062
3.69957500000298,0.0981946917017922
3.71897900000215,2.18694201344624
3.73666200000048,2.68357399437809
3.75298700000346,2.33609233004972
3.7756630000025,2.42609683144838
3.79232500000298,2.48781420383602
3.81001600000262,1.60544864548137
3.82672699999809,1.55851772689493
3.84769399999827,0.011726081429515
3.86359700000286,0.0339057621313259
3.87961200000346,0.0496565498760901
3.8953919999972,0.149304390710313
3.91177199999988,0.276275026611984
3.92745899999887,0.877697962743696
3.94297100000083,1.80699443968479
3.95848799999803,2.61864217551192
3.97480799999833,2.78932928352151
3.99043699999899,3.04519922321197
4.00628400000185,2.98733918659855
4.02180700000376,2.94844438420841
4.03876300000399,2.97223128814949
4.05503100000322,2.95101594139123
4.07106599999964,2.91919292125385
4.0879299999997,2.9391224894207
4.10571999999881,2.97769584716298
4.12195700000226,2.96548095054459
4.13724300000072,2.91565703012748
4.15387399999797,2.92497892491519
4.17074400000274,2.92851481604157
4.18816099999845,2.96258794871392
4.20349499999732,2.72696902183816
4.21974300000072,2.57717581593897
4.23555399999768,2.25862416991731
4.2524830000028,1.6707019089954
4.26856300000101,1.22775118425488
4.28488300000131,1.31839857494924
4.30199300000072,1.56366084126057
4.32243900000304,2.97287417744519
4.34056499999762,3.01434053701814
4.35728500000387,2.80636584985768
4.3766950000003,1.43218998028897
4.3965169999972,0.0589784446638077
4.41754699999839,0.888305636122823
4.43507400000095,1.65848701237701
4.45216000000387,1.76456374616828
4.4710530000031,2.62474962382112
4.49231099999696,2.28144673991483
4.51099700000137,0.770014005713165
4.52664500000328,1.41676063719206
4.5424849999994,2.30812664568657
4.5586400000006,2.38880925229751
4.57476099999994,2.7671496028197
4.59125500000268,2.83111708774231
4.60754299999773,2.9876606312464
4.62339100000262,3.00951886730036
4.63863700000197,2.97062406491023
4.65387700000405,2.88158389745513
4.66963199999929,2.47913519834401
4.68586400000006,2.26794606470503
4.70143299999833,1.32932769297622
4.71869799999893,1.81278044334613
4.73502000000328,1.58905496844091
4.75066099999845,0.775478564726654
4.76622200000286,0.203628536197357
4.78219399999827,-0.00659626349806786
4.79847200000286,-0.030061722791288
4.81467499999702,-0.00209603842813522
4.83233299999684,0.0191193083301187
4.8486630000025,-0.00723915279377252
4.86538499999791,-0.0168824922293425
4.88143800000101,-0.00466759561095387
4.8976400000006,0.00883307959884405
4.91548200000078,0.0782651235349476
4.93220600000024,0.0226551994564943
4.94832599999756,-0.0049890402588062
4.96553000000119,-0.0503127356059849
4.98288300000131,0.180805966199841
5.0010150000006,0.516072733909823
5.0174069999978,1.19946405524388
5.03359000000358,0.718261417408939
5.0506099999994,1.13356790243415
5.06648099999875,0.559146316722035
5.0846969999969,1.41161752282642
5.10084099999815,1.04709929216187
5.1171930000037,0.952594565693289
5.13332100000232,0.433782904059626
5.14977700000256,0.373994199559093
5.16634000000358,0.235130111686885
5.18335599999875,0.37913731392473
5.19947600000352,0.318705720128492
5.21513300000131,-0.0419551747618243
5.23245899999887,0.105587918602396
5.24856899999827,-0.0560987392673269
5.26553700000048,0.00851163495099172
5.2814980000034,-0.00145314913243055
5.2979280000031,0.0162263064994477
5.31433299999684,0.0120475260773674
5.32997100000083,0.0377630979055539
5.34691899999976,0.0249053119914606
5.36313899999857,0.0438705462147482
5.37922299999744,0.0512637731153518
5.3951969999969,0.0705504519864917
5.41187099999934,0.10751658648951
5.42818299999833,0.352135963505134
5.44562600000203,0.067014560860116
5.46449899999797,0.00883307959884405
5.48790399999917,2.93558659829432
5.50693400000036,3.02494821039727
5.52459399999678,2.84301053971285
5.54249400000274,2.26376728428295
5.56071700000018,0.808908808103297
5.57864999999851,0.110409588320181
5.59680700000376,0.0303698710049503
5.61588800000399,-0.0110964885680005
5.63382800000161,0.637900255445857
5.65128500000387,1.66555879462976
5.66972500000149,2.49102865031455
5.6873919999972,2.9458728270256
5.7061099999994,3.00951886730036
5.72317300000042,3.00469719758257
5.7388219999969,2.97801729181083
5.75492400000244,2.97094550955808
5.76969399999827,2.61253472720273
5.78564299999922,2.31037675822154
5.80245199999958,2.5122439970728
5.8219450000003,2.9809102936415
5.83789500000328,2.9539089432219
5.85559700000286,2.98508907406358
5.8716630000025,2.95583761110902
5.8884830000028,2.96933828631882
5.90488800000399,2.966766729136
5.92185199999809,2.97448140068445
5.93736100000143,2.94008682336425
5.95329699999839,2.89572746196063
5.96991799999773,2.91726425336674
5.98639999999851,2.90183491026983
6.00269200000167,2.5189943346777
6.01948900000006,2.72246879676823
6.03572600000352,2.36277223582147
6.05172200000286,1.9188571771374
6.06767899999768,1.353757486213
6.08402899999917,1.0921015428612
6.10148600000143,1.74109828687506
6.11756099999696,1.22035795735428
6.13468299999833,1.66780890716473
6.15086500000209,1.23160852002911
6.16679100000113,0.765835225291084
6.18340600000322,0.537288080668077
6.20002600000054,0.597076785168611
6.21614999999851,0.319027164776344
6.23215100000054,0.0850154611398466
6.24799599999934,-0.0242757191299461
6.2642880000025,-0.00209603842813522
6.28203000000119,0.0599427786073647
6.30076300000399,0.789943573880009
6.31865799999982,2.30073341878597
6.33495099999756,1.99761111586122
6.35119600000232,1.45533399493434
6.36747100000083,1.72116871870821
6.38445099999756,1.34089970029891
6.40036900000274,0.894413084432017
6.41639699999988,1.41354619071353
6.4323219999969,0.116195591981523
6.44985499999672,0.546609975455794
6.46562700000405,0.104302140010986
6.48192599999905,0.0480493266368285
6.4987669999972,0.465284479549155
6.51547200000286,0.132589269021992
6.53167300000042,-0.0271687209606171
6.54800599999726,-0.033919058565516
6.56518800000101,0.170198292820714
6.58158299999684,0.110409588320181
6.59950599999726,0.232879999151919
6.61568200000375,0.153804615780246
6.63242300000042,0.124553152825683
6.6493580000028,0.399066882091574
6.66575800000131,0.332527839986142
6.68250299999863,0.187877748452593
6.70029999999702,0.533752189541701
6.71775100000203,1.57619718252681
6.73380900000036,1.15928347426234
6.75176600000262,1.88767704629572
6.77277400000393,3.00405430828687
6.79065799999982,2.94105115730781
6.80806599999964,2.50645799341146
6.82597100000083,1.76456374616828
6.8446630000025,0.269203244359232
6.86438499999791,0.00561863312032074
6.88295300000161,0.500643390812911
6.89988599999994,0.702510629664175
6.91798099999875,1.72406172053888
6.93452899999917,1.58294752013171
6.95148700000346,1.87996237474727
6.9675169999972,1.37143694184488
6.98340399999917,0.859054173168261
6.99928599999845,0.384280428290367
7.01572200000286,0.166662401694339
7.03236599999666,0.319027164776344
7.04822900000215,0.0191193083301187
7.06442300000042,-0.030061722791288
7.08157500000298,0.0721576752257533
7.09850100000203,0.0589784446638077
7.11492000000179,0.0236195334000513
7.13198700000346,0.0316556495963596
7.15002300000191,1.04677784751402
7.16652000000328,0.365958083362784
7.18346500000358,1.15799769567093
7.20032299999893,1.17921304242918
7.21720700000227,1.06059996737167
7.23508200000227,1.76456374616828
7.25175500000268,2.22583681583637
7.26874199999869,2.14772576640826
7.28759799999744,2.96162361477036
7.30421100000292,2.96805250772741
7.31961900000274,2.80668729450554
7.33539999999851,2.62474962382112
7.352375,2.49102865031455
7.36798700000346,2.08857995120343
7.38393200000375,1.09017287497409
7.40067100000381,1.39940262620803
7.41684600000083,0.946808562031947
7.43303500000387,0.824981040495913
7.44934700000286,0.601898454886395
7.46527600000054,0.122624484938569
7.4812650000006,0.0236195334000513
7.49709300000221,0.000475518754683435
7.51384799999744,-0.000810259836725891
7.53033299999684,0.00176129734609276
7.54631499999762,0.0216908655129373
7.56237600000203,0.0387274318491109
7.57946000000089,0.0316556495963596
7.59557999999821,0.0400132104405202
7.6116400000006,0.0628357804380357
7.62778299999982,0.248952231544536
7.64393999999762,0.507072283769958
7.66022800000012,0.612827572913375
7.67621400000155,1.17053403693717
7.6920719999969,1.70123915054137
7.70820300000161,2.50742232735502
7.72414900000393,2.63825029903091
7.74014800000191,3.04777078039479
7.75625800000131,3.03652021771995
7.77192599999905,2.98251751688076
7.78843400000036,2.9815531829372
7.80375100000203,2.94973016279982
7.81946299999952,2.93687237688573
7.83575699999929,2.93012203928083
7.8517650000006,2.90729946928332
7.86780799999833,2.07668649923289
7.88340399999917,0.787693461345043
7.899625,0.607684458547737
7.91632999999821,0.697367515298538
7.93283500000089,0.689974288397934
7.94921999999881,0.602219899534248
7.96626099999994,0.595148117281497
7.9857669999972,2.87161911337171
8.00438800000399,2.97448140068445
8.02312099999934,3.02141231927089
8.04229699999839,1.97253843332874
8.0698219999969,2.47656364116119
8.09410700000078,0.316777052241378
8.11408500000089,-0.00852493138518184
8.13174499999732,0.0782651235349476
8.14893100000173,0.354064631392248
8.16468400000036,0.025226756639313
8.18068699999899,-0.00563192955451086
8.19873600000143,0.319991498719901
8.21656499999762,0.737548096280079
8.23403999999911,1.59451952745439
8.25210300000012,2.60064127523219
8.2722480000034,2.97641006857157
8.29740600000322,0.0159048618515953
8.31690100000054,1.22582251636777
8.33949000000209,3.01080464589177
8.36308799999952,0.0178335297387093
8.38636999999732,2.8912272368907
8.41002400000393,1.01431193808094
8.42937799999863,0.0245838673436083
8.44799400000274,0.0149405279080383
8.46749899999797,1.81760211306391
8.48616899999976,2.84140331647359
8.50751399999857,2.62732118100394
8.52946100000292,0.0310127603006549
8.55321000000089,2.92433603561949
8.57188000000268,2.99376807955559
8.59093599999696,2.46981330355629
8.61013899999857,0.731762092618737
8.62898200000078,0.0348700960748829
8.64765200000256,0.112981145502999
8.66608399999887,0.559146316722035
8.68423200000077,2.13776098232483
8.70334399999678,2.9458728270256
8.72198700000346,2.99183941166848
8.74029800000042,3.02301954251016
8.75752300000191,2.53795956890099
8.77571000000089,1.22389384848066
8.7956950000003,0.0329414281877689
8.8155869999975,0.207485871971585
8.83266399999708,0.613149017561227
8.85017599999905,1.53698093548883
8.86875999999791,2.89476312801708
8.88994399999827,2.8918701261864
8.90952600000054,0.942629781609867
8.92946899999678,0.0274768691742793
8.94906599999964,0.808587363455445
8.96820300000161,1.98057454952504
8.98960400000215,3.09020147391129
9.00838599999994,1.85167524573626
9.02565299999714,1.38429472775897
9.04243100000173,0.959344903298188
9.05821299999952,1.74945584771922
9.07517599999905,1.5601249501342
9.09461800000071,0.0531924410024658
9.11173799999803,0.0371202086098492
9.12773799999803,0.0573712214245461
9.14394099999964,0.074729232408572
9.15997299999744,0.145125610288233
9.17685700000077,0.401959883922245
9.19654999999702,0.00497574382461607
9.21430700000376,0.129696267191321
9.23141000000387,0.318062830832787
9.24825100000203,0.251845233375207
9.26581499999762,0.742369765997864
9.28252400000393,0.759084887686186
9.30182599999756,2.56560380861629
9.31723700000346,1.92882196122082
9.33210599999875,0.406460108992178
9.34767899999768,0.0933730219840072
9.36296500000358,0.00947596889454871
9.37834899999946,0.0374416532577015
9.39505600000173,0.0406560997362249
9.41452000000328,-0.0127037118072622
9.43405399999768,1.72341883124318
9.45172600000352,2.87740511703305
9.46918299999833,2.91372836224036
9.49243400000036,1.47687078634044
9.51446400000155,0.0477278819889762
9.53479999999702,2.40970315440791
9.55803299999982,2.14033253950765
9.58024700000137,-0.00723915279377252
9.60205200000107,2.74271980958292
9.62393200000376,2.91308547294466
9.64576200000197,0.0342272067791782
9.66866499999911,2.79125795140862
9.68850200000405,3.00212564039975
9.70855099999905,1.54373127309373
9.72852400000393,0.0432276569190435
9.75003700000048,1.29975478537381
9.7717650000006,2.99376807955559
9.78881300000101,3.03716310701566
9.80593100000173,3.01016175659606
9.82186800000072,3.01241186913103
9.83796700000018,2.98508907406358
9.85475999999791,2.99730397068197
9.87035700000077,2.98316040617647
9.88576300000399,2.95005160744768
9.90156099999696,2.77068549394608
9.91732999999821,2.00050411769189
9.93503400000185,2.86647599900607
9.95156400000304,2.83433153422084
9.96765799999982,2.41098893299932
9.98177499999851,0.462391477718484
9.99390399999917,0.0541567749460228
10.0073699999973,1.90246350009693
10.019188000001,2.96290939336177
10.0304919999987,0.109766699024476
10.0420200000033,1.0509566279361
10.053987999998,2.99248230096418
10.065263000004,0.743334099941421
10.0765310000032,0.288811367878225
10.0880429999977,3.01626920490526
10.099013000004,1.0091688237153
10.1106309999973,0.267596021119971
10.123425999999,2.26055283780443
10.1351270000041,2.94748005026486
10.1471030000001,-0.0191326047643088
10.1589189999998,0.960630681889597
10.1695860000029,2.97287417744519
10.1820109999999,0.905663647106849
10.1941040000021,0.0496565498760901
10.2055799999982,2.89379879407352
10.2163149999976,1.45661977352574
10.2279619999975,0.0339057621313259
10.2395970000029,2.870976224076
10.251626000002,2.64532208128367
10.26375,0.198806866479572
10.2750570000038,0.724368865718134
10.2860790000036,2.97030262026237
10.297263000004,0.114266924094409
10.3093910000026,0.610256015730556
10.3209849999994,2.99891119392123
10.3319230000004,0.606398679956328
10.3441199999973,0.0454777694540098
10.3559230000004,3.15738340531243
10.3673530000001,1.92496462544659
10.378939000003,0.010761747485958
10.3911429999992,1.44601210014662
10.4025759999976,2.97094550955808
10.4141490000039,0.332849284633994
10.4259949999973,0.689009954454377
10.4381230000034,2.9802674043458
10.4494160000011,1.57008973421762
10.4608350000009,0.0432276569190435
10.4726710000038,2.79382950859144
10.4842260000035,2.92047869984526
10.4960249999985,-0.00531048490665853
10.5086820000038,0.722761642478872
10.520388000004,2.99280374561204
10.5322569999993,1.22710829495918
10.5439930000007,0.0480493266368285
10.5563200000003,2.75043448113138
10.5683320000023,2.94297982519493
10.5800530000031,-0.0802070878562517
10.5924519999996,0.523144516162574
10.6052290000021,2.97833873645868
10.6161820000038,1.926250404038
10.6287049999982,0.0101188581902534
10.6410480000004,1.31004101410508
10.652137000002,2.95294460927835
10.6642269999981,0.343135513365269
10.6762779999971,0.170519737468567
10.6924079999998,0.690295733045787
10.708575000003,0.851339501619805
10.7246309999973,1.86678314418532
10.7412409999967,1.06863608356798
10.7579240000024,1.48426401324105
10.7739839999974,2.24705216259463
10.7906740000024,2.19433524034685
10.8070960000008,2.30684086709516
10.8240150000006,1.86903325672029
10.8406209999993,2.02975558064645
10.8580240000039,1.8844625998172
10.8753460000008,1.40390285127796
10.8925480000004,0.701546295720618
10.9092159999982,0.207164427323733
10.9256550000012,0.606398679956328
10.9420059999973,1.22003651270643
10.9580319999978,1.75009873701492
10.9746950000003,1.30554078903515
10.9921300000027,0.853589614154771
11.0125209999979,0.0676574501558207
11.0380600000024,2.98348185082432
11.0578910000026,1.34411414677743
11.0759919999987,0.710546745860483
11.0955139999986,0.0249053119914606
11.1174289999977,2.42545394215267
11.1373519999981,2.99055363307707
11.1589629999995,0.739155319519341
11.1812299999967,0.012690415373072
11.2055960000008,3.03073421405861
11.2253100000024,0.571682657988276
11.2437019999996,0.342171179421712
11.2634820000008,0.274989248020574
11.2822850000039,0.944237004849128
11.3026169999987,2.97126695420593
11.3260109999999,0.78319323627511
11.344751000002,0.0326199835399166
11.3668610000014,1.82788834179519
11.3890590000004,3.01241186913103
11.4077400000021,1.79895832348848
11.4257880000025,0.458855586592108
11.4421469999999,0.589362113620155
11.457950000003,1.35857915593078
11.4743790000007,1.50580080464715
11.4896070000008,2.8285455305595
11.5049560000002,3.042949110677
11.5218170000017,3.00630442082183
11.5365949999988,2.99087507772492
11.5516780000031,2.94458704843419
11.5671120000035,2.4845997573575
11.5841710000038,2.67907376930816
11.5997859999985,2.05161381670041
11.6158549999967,1.49069290619809
11.6314760000035,0.615720574744046
11.6474870000035,0.269524689007085
11.6637140000015,0.405817219696473
11.679501000002,0.0541567749460228
11.6958020000011,-0.00627481885021552
11.7116820000038,0.0210479762172326
11.7280890000015,0.0229766441043466
11.7436840000004,0.0467635480454192
11.7595020000041,0.483606824476738
11.7776300000027,0.0326199835399166
11.7962939999998,-0.0262043870170601
11.8127599999979,0.0869441290269606
11.829563000001,-0.00691770814592019
11.8458329999968,-0.00820348673732951
11.8628580000028,-0.00948926532873884
11.8797299999967,0.0287626477656886
11.897449000001,0.202985646901652
11.9171660000011,2.47849230904831
11.9367719999999,2.9883035205421
11.9542089999989,2.99955408321694
11.972185999997,3.0779865772929
11.9893620000035,3.05516400729539
12.0067449999973,2.58971215720521
12.0258159999996,0.327706170268357
12.0428800000027,0.747512880363502
12.0591010000035,0.0840511271962896
12.0753269999996,0.429282678989694
12.092012000002,0.874483516265173
12.1086389999986,0.637257366150152
12.1245109999999,1.20589294820093
12.1405050000027,1.89282016066136
12.1576560000032,1.87899804080371
12.1748980000019,1.19271371763898
12.1916209999993,0.614756240800489
12.2088510000035,0.671009054174647
12.2254870000035,0.51703706785338
12.2411630000025,1.16346225468442
12.2569980000034,2.00114700698759
12.2729780000001,2.86165432928829
12.2899809999987,2.63825029903091
12.306564000003,2.10079484782182
12.3217360000014,3.08602269348921
12.337188000001,3.00244708504761
12.3530050000027,2.98348185082432
12.3692239999995,2.97898162575439
12.3848910000026,2.95423038786976
12.400925999999,2.74368414352648
12.4169509999976,2.39041647553677
12.4329839999974,1.95968064741464
12.4491209999993,1.63662877632305
12.4658339999989,1.91242828418035
12.4820359999985,1.04324195638765
12.4979299999997,0.733369315857999
12.5144109999985,0.511251064192038
12.5307370000035,0.227415440138429
12.5472060000002,0.492607274616603
12.5628959999979,0.00819019030313939
12.5790329999998,-0.00981070997659117
12.5955689999983,0.00240418664179742
12.6124149999991,-0.0233113851863891
12.628373999998,0.00722585635958239
12.644800999999,0.015583417203743
12.6616950000003,0.0114046367816627
12.677699000001,0.0255482012871653
12.6938329999968,0.0400132104405202
12.7101400000006,0.0535138856503181
12.7258650000021,0.280132362386212
12.7416620000005,0.869661846547388
12.7575530000031,1.50580080464715
12.773185999997,2.11365263373591
12.7892639999986,2.74464847747004
12.8052159999982,2.98412474012002
12.8212800000012,3.0153048709617
12.8365810000002,2.99312519025989
12.8535190000013,3.00051841716049
12.8711770000011,3.02076942997519
12.8881019999981,3.03009132476291
12.9044519999996,3.01305475842673
12.9218959999979,3.00373286363902
12.9384450000003,2.98541051871143
12.956513000004,2.67778799071675
12.9724149999991,2.88415545463795
12.988814000003,2.9465157163213
13.005186999999,3.08055813447572
13.0211600000039,3.01434053701814
13.0386789999977,2.97641006857157
13.0562520000041,2.93783671082929
13.0815590000004,0.909520982881077
13.0990810000002,1.72341883124318
13.1159940000027,1.72084727406036
13.1324090000018,1.54951727675507
13.1478580000028,0.941344003018457
13.1632650000006,0.0850154611398466
13.179450000003,0.015583417203743
13.1977100000009,0.566218098974787
13.2138599999994,0.381387426459696
13.229487999998,-0.0470982891274616
13.2454699999988,0.000796963402535766
13.2610780000016,0.0178335297387093
13.2772119999975,0.0364773193141446
13.2934959999993,0.0753721217042767
13.3094940000027,0.0615500018466264
13.3256689999998,0.148340056766756
13.342074000001,0.320634388015606
13.3583269999996,0.67004472023109
13.3746199999973,0.905985091754701
13.3922580000013,0.29781181801809
13.4088420000002,0.146411388879642
13.4256180000007,0.128410488599911
13.4421180000007,0.400031216035131
13.4583640000001,0.695117402763572
13.475112999998,0.491964385320898
13.4912370000035,1.04259906709194
13.5081169999987,0.687402731215116
13.5247690000013,0.658151268260553
13.5411799999997,0.885412634292152
13.5572370000035,1.37143694184488
13.5740450000018,1.42093941761414
13.5896840000004,2.18533479020698
13.604950000003,3.01980509603163
13.6212170000002,3.04809222504264
13.6368599999994,3.00694731011754
13.6524289999977,2.98573196335929
13.6683540000021,2.96708817378385
13.6861950000003,2.99344663490774
13.7026770000011,2.99087507772492
13.7186349999979,2.9735170667409
13.7344179999977,2.9465157163213
13.7513159999996,2.94619427167345
13.7670450000018,2.89412023872137
13.7829769999981,2.42770405468764
13.7987199999988,1.67198768758681
13.8155649999976,1.86453303165035
13.8332719999999,2.53538801171817
13.8492840000018,2.07861516712001
13.865824000001,1.94553708290914
13.8825289999992,1.96675242966739
13.8996469999999,1.90117772150552
13.9173910000026,2.87579789379379
13.9348219999969,2.9539089432219
13.9512730000019,2.95615905575687
13.9675869999975,2.94394415913848
13.9841140000001,2.93140781787224
14.0011049999967,2.93462226435076
14.0175539999977,2.94362271449063
14.034125,2.93783671082929
14.0509139999971,2.94619427167345
14.0678669999987,2.95583761110902
14.0846049999967,2.95905205758754
14.1014079999998,2.95937350223539
14.1202299999967,3.00308997434331
14.1388339999989,3.02334098715801
14.1572280000001,1.3740084990277
14.1748999999985,0.706689410086256
14.194123999998,0.0377630979055539
14.2158519999981,2.00661156600108
14.2344149999991,2.94008682336425
14.2562980000004,2.55435324594146
14.277425999999,0.0281197584699839
14.2973680000007,0.581325997423846
14.3143819999993,0.784157570218667
14.3307189999968,0.697367515298538
14.3476049999967,0.770014005713165
14.3655799999982,1.6504508961807
14.385200000003,2.97608862392372
14.4024179999977,2.9883035205421
14.4213840000033,3.05002089292975
14.4409750000015,1.2856112208683
14.4647990000024,0.733690760505851
14.4858320000023,2.97544573462801
14.5111099999994,0.0319770942442119
14.5373680000007,3.0018041957519
14.5649170000032,0.597076785168611
14.5876829999983,3.04037755349418
14.6084860000014,0.314205495058559
14.6285769999996,0.010761747485958
14.6489289999977,1.82499533996452
14.6677180000022,2.95423038786976
14.6893189999983,2.86615455435822
14.7114900000021,0.0261910905828699
14.7394930000007,2.96419517195318
14.7585460000038,0.510286730248481
14.7787929999977,0.0589784446638077
14.7993200000003,2.05932848824887
14.819237999998,2.98733918659855
14.8375839999989,3.04166333208559
14.8569010000005,1.9943966693827
14.8752390000001,0.387173430121038
14.8938929999992,0.0287626477656886
14.9115700000003,-0.00434615096310154
14.9304450000003,0.4164248930756
14.9498090000004,2.36245079117361
14.9682590000033,2.96419517195318
14.9875340000018,3.04391344462056
15.0054839999974,2.72504035395104
15.0230410000011,1.98475332994713
15.0451700000018,0.0396917657926679
15.0644090000018,0.816944924299605
15.0844629999995,2.95873061293969
15.1059769999981,2.54310268326662
15.1237009999976,1.25893131509656
15.1413950000033,0.472034817154054
15.1593290000036,0.0538353302981704
15.178138000004,0.000796963402535766
15.2002880000025,2.53699523495743
15.2202580000013,3.00919742265251
15.2379820000008,3.03459154983284
15.2560780000016,2.23033704090631
15.2700190000013,2.99730397068197
15.2827320000008,2.19015645992476
15.2970920000002,0.784800459514372
15.3095719999969,0.0361558746662922
15.3253210000023,0.121981595642865
15.3385020000041,2.54503135115374
15.3494610000029,2.66685887268977
15.3611010000035,-0.0049890402588062
15.3726290000007,1.91532128601102
15.3833680000007,2.89637035125634
15.3949100000039,-0.0120608225115575
15.4068919999972,0.906949425698258
15.4175769999996,2.9600163915311
15.4289860000014,0.0715147859300487
15.4403500000015,0.878019407391548
15.4513910000026,2.97641006857157
15.463075000003,0.418675005610567
15.4746410000026,0.259559904923663
15.4851600000039,2.98219607223291
15.4961199999973,0.402924217865802
15.5078390000015,0.274024914077017
15.5185790000036,2.98219607223291
15.5297210000008,0.491321496025193
15.5414240000024,0.401638439274393
15.552186999999,2.98894640983781
15.5637480000034,0.890555748657789
15.5754780000001,0.0535138856503181
15.5869860000014,3.02591254434083
15.5979439999983,1.38011594733689
15.6104680000022,0.0101188581902534
15.6222229999974,2.20365713513456
15.6333610000014,2.86486877576681
15.6445209999979,-0.00884637603303418
15.6561719999984,1.59419808280654
15.6674189999998,2.96162361477036
15.6800460000038,0.760370666277595
15.6916190000027,0.0808366807177663
15.7025780000016,2.99955408321694
15.713763000004,1.07152908539865
15.7259090000018,0.0406560997362249
15.7364610000029,3.00887597800465
15.7482880000025,1.96996687614592
15.7602829999998,0.0133333046687767
15.7715480000004,2.6774665460689
15.7830670000017,2.91983581054956
15.7944350000024,0.0358344300184399
15.807001000002,0.609291681786999
15.8188039999977,2.99955408321694
15.8309560000002,1.36243649170501
15.8434860000014,0.0210479762172326
15.856138000004,1.38043739198474
15.8674219999984,2.96194505941821
15.8788910000026,0.0904800201533362
15.891925999999,0.0576926660723984
15.9038390000016,3.02494821039727
15.9153510000035,2.32034154230496
15.9277609999999,-0.0123822671594098
15.940387000002,0.913056874007452
15.9512899999991,2.97383851138875
15.964001000002,1.24221619340824
15.9765319999978,0.0284412031178363
15.9934699999988,0.023298088752199
16.0101780000031,0.022333754808642
16.0261909999996,0.0348700960748829
16.0434589999989,0.023298088752199
16.0609849999994,-0.00145314913243055
16.0778730000034,-0.00884637603303418
16.0941710000038,0.00497574382461607
16.1105240000039,0.0104403028381057
16.1270719999969,0.0152619725558907
16.1437829999998,0.00819019030313939
16.1607170000002,0.00240418664179742
16.177751000002,-0.00820348673732951
16.1966359999999,0.614756240800489
16.2146389999986,1.69095292181009
16.2311930000037,1.44119043042883
16.2470040000007,0.971881244564429
16.2626459999979,0.230629886616953
16.279185999997,0.415782003779896
16.2954659999982,0.0904800201533362
16.3132100000009,0.630185583897401
16.329501000002,0.395209546317346
16.3454469999969,0.172769850003533
16.3614020000026,0.0451563248061575
16.3773320000023,0.00240418664179742
16.3930490000024,0.0277983138221316
16.4093039999977,0.0380845425534062
16.4254230000004,0.0509423284674995
16.4411490000039,0.415782003779896
16.4567870000005,0.980560250056442
16.4727740000039,1.94200119178277
16.4888990000039,2.52381600439548
16.5049060000032,2.77293560648104
16.5202650000006,3.03877033025492
16.5367449999973,3.04905655898619
16.5534959999993,3.02751976758009
16.5688889999986,3.0011613064562
16.5848079999983,2.98605340800714
16.602001000002,2.99987552786479
16.6182119999975,2.98283896152861
16.6350410000011,2.99280374561204
16.650800999999,2.96869539702311
16.6669640000015,2.95423038786976
16.6842829999998,2.96708817378385
16.7003800000027,2.95133738603909
16.7167140000015,2.94008682336425
16.7335370000005,2.94233693589922
16.7493159999996,2.57685437129112
16.7659729999974,2.71796857169829
16.7834179999977,2.94555138237774
16.8004350000024,2.95808772364398
16.8165960000008,2.94297982519493
16.8326120000035,2.88254823139869
16.8486469999999,2.50099343439797
16.8649710000008,1.97028832079377
16.881612999998,2.09404451021692
16.8981909999996,1.99536100332625
16.9163999999985,2.92497892491519
16.9348420000002,2.98508907406358
16.9561389999986,1.67166624293895
16.9721480000019,2.50388643622864
16.9896019999981,1.51705136732198
17.007174999997,0.886698412883561
17.024137000002,0.515108399966266
17.0407360000014,0.705725076142699
17.0578640000001,0.206521538028028
17.0738699999973,0.694153068820015
17.0893149999976,1.8365673472872
17.1052229999974,2.51449410960777
17.1208859999999,2.97801729181083
17.1364750000015,3.04102044278989
17.1520450000018,3.00341141899116
17.1682349999994,2.98798207589425
17.1851679999977,2.99408952420345
17.2023959999979,3.01562631560955
17.2186660000011,3.00534008687828
17.2353189999983,3.00469719758257
17.2524310000017,3.01112609053962
17.2690059999973,3.01241186913103
17.2861070000008,3.0496994482819
17.3045040000007,2.75718481873628
17.3225219999999,1.88574837840861
17.3385169999972,2.33769955328899
17.3560150000006,2.37145124131348
17.3724780000001,2.33705666399328
17.3890279999971,1.76070641039405
17.4059060000032,2.28916141146328
17.4219959999993,2.24801649653818
17.4394270000011,1.50419358140789
17.4562850000039,1.45886988606071
17.4730869999975,1.13646090426482
17.4895209999979,1.32836335903266
17.5069020000026,0.948094340623356
17.5242929999977,0.159590619441587
17.5411840000004,0.15991206408944
17.5606030000001,0.000154074106831104
17.5774270000011,-0.00756059744162485
17.5943460000008,-0.00338181701954454
17.6108090000004,-0.0217041619471274
17.6278840000033,0.0133333046687767
17.6447850000039,0.0705504519864917
17.6619200000018,0.137732383387629
17.6784420000017,0.163447955215815
17.6953090000004,0.225486772251315
17.7119469999969,0.1682696249336
17.7286600000039,0.285596921399701
17.7454540000036,0.373994199559093
17.7627390000001,0.541145416442305
17.779876000002,0.962559349776711
17.797311999999,1.58391185407527
17.8150780000016,2.08022239035927
17.832612999998,2.90890669252258
17.8495,2.93526515364647
17.8659130000025,2.92144303378882
17.883186999999,2.95198027533479
17.900362999998,2.9606592808268
17.9165029999986,2.95230171998264
17.9324320000038,2.7954367318307
17.9490420000032,2.77775727619883
17.9666049999967,2.95455183251761
17.9825359999985,2.84108187182574
17.9998070000038,2.95358749857405
18.0174830000028,2.97030262026237
18.0344579999968,2.99119652237277
18.0509619999975,2.98637485265499
18.0680240000039,2.99891119392123
18.084689000003,2.99473241349915
18.1013030000031,2.99248230096418
18.1192679999992,3.06255723419599
18.1366059999987,2.99119652237277
18.1528980000019,3.02398387645371
18.1693840000033,3.01819787279237
18.1877309999987,2.78836494957795
18.2054069999978,2.24255193752469
18.2223449999988,2.00082556233974
18.2390209999979,1.91114250558894
18.2552370000035,2.06029282219242
18.2723570000008,1.62569965829607
18.2890799999982,1.46401300042635
18.305949000001,1.37625861156266
18.3234010000005,0.788336350640748
18.3405909999982,0.257309792388696
18.3570780000016,0.372708420967683
18.3730300000012,1.1258532308857
18.389424999997,1.43926176254172
18.4062690000013,1.73691950645298
18.4235069999993,1.229679852142
18.4405710000023,0.236094445630442
18.4571300000027,0.429604123637546
18.4736270000041,0.496143165742978
18.4903170000017,0.594505227985792
18.5071579999998,0.192056528874673
18.5244930000007,0.0618714464944787
18.5406279999986,0.312598271819297
18.5576279999986,0.0628357804380357
18.5736099999994,0.453069582930766
18.5902819999978,0.618935021222569
18.606501000002,0.816944924299605
18.6229540000036,1.2370730790426
18.639563000001,0.858732728520408
18.6569399999976,0.481035267293919
18.6738709999993,0.694153068820015
18.6916400000006,0.0480493266368285
18.708449000001,0.0515852177632041
18.7257390000001,0.022333754808642
18.741625,0.0467635480454192
18.7605099999979,-0.0127037118072622
18.7778039999977,-0.0390621729311533
18.7944959999993,0.209414539858699
18.8110029999986,0.0502994391717948
18.8276230000034,0.265988797880709
18.8444729999974,0.011726081429515
18.8614799999967,0.295883150130976
18.8785090000033,0.228058329434134
18.8954790000021,0.748155769659206
18.9127070000023,1.00595437723678
18.9308650000021,2.05129237205256
18.9482719999999,2.69611033564433
18.9657470000014,2.90279924421338
18.9826349999979,2.94619427167345
18.9991089999974,2.93365793040721
19.0158720000014,2.93590804294217
19.0324560000002,2.92433603561949
19.0498999999985,2.96998117561452
19.0669509999976,2.96965973096667
19.0880050000027,2.27180340047926
19.1059659999982,1.50194346887292
19.122064000003,1.86389014235465
19.1395300000012,0.73079775867518
19.1563840000033,0.734655094449408
19.1730420000032,0.619577910518274
19.1906030000001,0.0666931162122637
19.2077060000002,0.0557639981852844
19.225501000002,0.0345486514270306
19.2423800000027,0.0220123101607896
19.258560999997,0.0313342049485072
19.2756070000008,0.0239409780479036
19.2926410000026,0.0139761939644814
19.3106930000037,0.0390488764969632
19.3295429999977,0.854232503450476
19.351813000001,3.00212564039975
19.3731810000017,0.557217648834921
19.3927260000035,0.0171906404430047
19.4134329999983,1.11170966638019
19.4329519999996,2.95165883068694
19.452050999999,3.0423062213813
19.472450000003,1.52155159239192
19.4922309999987,0.0258696459350176
19.5097960000038,-0.00209603842813522
19.526810999997,-0.0245971637777984
19.5446609999984,0.162162176624406
19.5636660000011,1.09531598933972
19.5813229999989,2.57878303917823
19.5991190000027,2.94748005026486
19.616450000003,2.96933828631882
19.6343599999994,3.00148275110405
19.6512889999971,3.00083986180834
19.6681000000015,3.00823308870895
19.6847990000024,3.00405430828687
19.7009020000026,2.99923263856908
19.7178210000023,3.00308997434331
19.7342290000021,2.99601819209056
19.7508229999989,2.99698252603412
19.7688360000029,3.04841366969049
19.7870829999968,2.61703495227266
19.8054689999968,1.69609603617573
19.8214980000034,2.13004631077638
19.8373669999987,2.48267108947039
19.8533180000037,2.7597563759191
19.869685999997,2.88608412252506
19.8871700000018,2.57492570340401
19.9029790000021,2.78643628169084
19.9191209999993,2.95905205758754
19.9351840000004,3.02591254434083
19.951373999998,3.0079116440611
19.9674949999973,3.00051841716049
19.9834230000004,2.97608862392372
19.9999640000016,2.97512428998016
20.0179210000038,2.98219607223291
20.0345469999984,3.00919742265251
20.0509090000018,2.99087507772492
20.0675659999996,2.99923263856908
20.083550999999,2.98283896152861
20.0995850000009,2.96869539702311
20.115699000001,2.94458704843419
20.1316950000003,2.90279924421338
20.1479680000022,2.70736089831917
20.1641070000008,2.39073792018462
20.180688000001,2.03747025219491
20.1980359999984,2.76875682605896
20.2139460000023,2.2431948268204
20.2305549999997,2.14193976274692
20.2484930000007,2.93140781787224
20.2655209999979,2.94876582885627
20.2832459999993,2.97608862392372
20.3003299999982,2.98573196335929
20.3174570000023,2.99923263856908
20.3338269999996,2.99055363307707
20.352436999999,3.01691209420096
20.3723030000031,1.79349376447499
20.3899430000037,0.586469111789484
20.407564000003,0.0509423284674995
20.4250890000015,0.0271554245264269
20.4445069999993,0.0303698710049503
20.4672829999998,2.99408952420345
20.487686999999,2.56046069425065
20.5084139999971,0.0419418783276342
20.5266560000032,-0.0290973888477311
20.5446689999998,0.297490373370238
20.5611969999969,0.217772100702859
20.5770289999992,-0.00273892772383988
20.5939619999975,0.0647644483251497
20.6145059999973,2.47527786256978
20.6325900000036,2.95583761110902
20.6513969999999,3.01434053701814
20.6703229999989,2.93462226435076
20.6967709999979,1.14160401863046
20.7204139999971,2.58874782326166
20.7378549999967,2.35762912145583
20.7591569999978,0.0271554245264269
20.7823460000008,2.87001189013245
20.8036150000021,2.66364442621125
20.8262040000036,0.00979741354240105
20.8437229999974,0.0207265315693803
20.8616569999978,0.576504327706061
20.8807040000036,1.96707387431525
20.9023640000001,3.07091479504015
20.9229149999991,0.671330498822499
20.9439579999968,0.0419418783276342
20.965939000003,2.95519472181331
20.9852449999973,3.05516400729539
21.0042819999978,2.38623769511469
21.0237089999989,0.172126960707828
21.0416820000038,0.0425847676233388
21.0615960000008,0.578432995593175
21.0789299999997,0.820480815425981
21.0984689999968,2.9330150411115
21.1162779999971,2.97383851138875
21.1337709999979,2.99666108138626
21.1555909999982,1.34250692353817
21.174638000004,0.0329414281877689
21.1946040000021,0.269846133654937
21.2148610000014,2.92144303378882
21.2352079999968,3.04552066785982
21.2553999999985,1.27178910101065
21.2741279999986,0.0535138856503181
21.2940380000025,0.0245838673436083
21.3126829999983,1.11653133609798
21.3327650000006,2.94748005026486
21.3504680000022,2.98798207589425
21.3677580000013,3.01144753518747
21.3850649999976,3.04487777856411
21.4032850000039,2.95198027533479
21.4240150000006,0.0647644483251497
21.4420350000039,0.015583417203743
21.4597239999995,-0.00884637603303418
21.4773840000033,0.149304390710313
21.4935570000038,-0.0332761692698114
21.5123900000006,1.25250242213951
21.5315490000024,2.89219157083426
21.5474139999971,2.58071170706535
21.5637679999992,2.11140252120094
21.5805380000025,2.20172846724745
21.5970700000003,2.32227021019207
21.6135549999997,2.15865488443524
21.6307870000005,2.56528236396844
21.6480169999972,2.92401459097164
21.6636560000032,2.45599118369864
21.6757819999978,-0.00434615096310154
21.6880429999977,1.37850872409763
21.6998950000033,2.99280374561204
21.7124130000025,1.42897553381044
21.7243709999993,0.0271554245264269
21.7355230000019,2.90987102646613
21.7471099999994,2.49327876284951
21.7591040000021,-0.00531048490665853
21.7714610000029,1.2923615584732
21.7832140000015,2.98862496518996
21.7951049999967,0.878662296687253
21.8078049999997,0.0245838673436083
21.8195069999993,2.57621148199541
21.8310600000024,2.78675772633869
21.8438039999977,0.241880449291784
21.8558460000008,0.363707970827818
21.8670579999983,3.00341141899116
21.8795539999977,1.98121743882075
21.8916359999999,0.013654749316629
21.9032910000011,2.51803000073414
21.9147569999993,2.93397937505506
21.9268420000002,0.156376172963064
21.9381850000024,1.35311459691729
21.9499120000005,2.99055363307707
21.9631920000017,2.08954428514699
21.974700000003,0.017512085090857
21.9869650000036,2.33898533188039
21.998074000001,2.9391224894207
22.0121689999998,1.38011594733689
22.0259689999968,-0.0204183833557181
22.0394909999967,0.0994804702932015
22.0524809999987,2.93012203928083
22.0683090000004,3.04423488926841
22.0873430000022,2.24930227512959
22.1072290000021,0.0519066624110565
22.1216810000017,1.03070561512141
22.1337580000013,3.00244708504761
22.146875,2.38109458074905
22.1605790000036,0.319991498719901
22.1733299999982,0.147375722823199
22.1922590000033,0.00851163495099172
22.2062950000018,0.18337752338266
22.2181419999972,3.00598297617398
22.2307920000032,2.66589453874622
22.244075000003,0.355028965335805
22.2565300000012,0.0551211088895798
22.2685279999971,2.96355228265747
22.2822470000014,2.96837395237526
22.2970890000015,2.59228371438803
22.309674999997,0.0946588005754165
22.323012000002,0.0618714464944787
22.3351639999971,3.02109087462304
22.3490850000009,2.97319562209304
22.3622609999999,1.22325095918495
22.3777320000008,0.496786055038683
22.3967220000029,1.90760661446257
22.4160050000027,2.96933828631882
22.4355300000012,2.96258794871392
22.455324000001,1.38043739198474
22.4751639999971,0.0316556495963596
22.5033390000015,2.44024039595388
22.5233889999986,0.461427143774927
22.5436529999971,0.0618714464944787
22.5676689999998,3.01819787279237
22.5871639999971,2.35120022849878
22.6052309999987,0.857125505281147
22.6235059999973,0.10205202747602
22.6426459999979,-0.00948926532873884
22.6631199999973,1.99214655684773
22.6820040000007,2.95648050040472
22.7000960000008,2.99408952420345
22.7186560000032,2.90022768703056
22.7367609999999,2.47495641792193
22.7557119999975,0.705725076142699
22.7729619999975,0.282382474921178
22.790686999999,0.0412989890319295
22.8089980000034,-0.00113170448457822
22.8272060000002,0.340242511534598
22.8452990000024,0.979595916112885
22.8637260000035,2.54342412791448
22.8819100000039,2.95519472181331
22.9019399999976,2.93108637322439
22.9227520000041,0.491000051377341
22.9457150000036,1.15639047243167
22.9678290000036,3.01144753518747
22.9918969999999,0.0229766441043466
23.0128180000037,1.61252042773413
23.0342370000035,3.01466198166599
23.057189000003,0.211664652393665
23.0763449999988,-0.03584772645263
23.0969560000002,1.83624590263935
23.1184439999983,3.0423062213813
23.1414560000002,0.0236195334000513
23.1590059999973,-0.00209603842813522
23.1796579999998,1.74141973152291
23.2007899999991,3.01144753518747
23.219563000001,2.58681915537454
23.2392250000015,0.605112901364919
23.258126000002,0.0191193083301187
23.2757089999989,-0.00981070997659117
23.2937939999998,0.237380224221852
23.3115949999988,1.01816927385516
23.3292929999977,1.78417186968727
23.3487470000014,2.97030262026237
23.366950000003,2.99666108138626
23.3844329999983,3.02687687828438
23.4020649999976,2.93365793040721
23.4209589999989,1.8224237827817
23.4394270000011,0.378172979981173
23.4564479999989,0.0644430036772974
23.4759160000011,-0.031990390678402
23.4946150000021,0.591933670802973
23.5130350000039,1.88317682122579
23.5312969999984,2.93944393406855
23.5487430000007,2.95680194505258
23.5673409999982,3.01209042448318
23.585064000003,2.99666108138626
23.6026569999978,2.66525164945051
23.6208730000034,2.0091831231839
23.6383570000008,1.40743874240434
23.6594799999967,0.00561863312032074
23.6774240000024,0.286239810695406
23.6953290000036,1.20910739467945
23.7127339999974,1.40776018705219
23.7312409999967,2.94040826801211
23.7499849999994,2.98701774195069
23.7691359999999,2.69289588916581
23.7874629999995,1.79381520912284
23.8059219999984,0.529894853767473
23.828248999998,0.743976989237126
23.846439000003,2.22197948006215
23.8652980000004,2.94715860561701
23.884186999999,3.02751976758009
23.9032110000029,2.73146924690809
23.9241679999977,0.0277983138221316
23.9395090000033,0.179841632256284
23.9564890000001,0.0994804702932015
23.9737140000016,0.0403346550883725
23.9903640000001,0.0435491015668958
24.0070169999972,0.0412989890319295
24.0241180000007,0.0274768691742793
24.0403559999987,0.0445134355104528
24.0560680000037,0.282382474921178
24.070435999997,2.1400110948598
24.0850700000003,2.96290939336177
24.0987199999988,2.96451661660103
24.1149139999971,2.94973016279982
24.1304670000002,2.68710988550447
24.1470820000023,2.518351445382
24.162625,1.8716048139031
24.1767800000012,0.303919266327284
24.1922599999979,-0.00370326166739687
24.2088659999967,0.0840511271962896
24.2270689999983,0.281418140977621
24.2437110000029,0.219700768589973
24.2594729999974,-0.0194540494121611
24.275549999997,0.0364773193141446
24.2901279999986,0.0474064373411238
24.3054949999973,0.833017156692222
24.3215860000029,1.07024330680724
24.3381810000017,1.57041117886547
24.3560319999978,0.067014560860116
24.3731030000001,0.51157250883989
24.3908390000015,0.0265125352307223
24.409949000001,0.20812876126729
24.4274010000005,0.252488122670911
24.4448149999976,0.906627981050406
24.4602939999998,0.336706620408222
24.476435999997,0.0229766441043466
24.4922810000032,0.164412289159372
24.5072639999986,0.0281197584699839
24.5187800000012,2.84686787548708
24.5319980000034,2.97866018110653
24.5459289999977,1.80377999320626
24.5590970000029,0.00465429917676374
24.5727840000018,0.0731220091693103
24.5848350000009,2.95165883068694
24.5972220000029,2.92883626068942
24.6098980000019,0.383637538994662
24.6218800000027,0.231272775912657
24.6350179999992,2.90183491026983
24.6487789999992,2.97930307040224
24.6626209999993,1.80667299503693
24.6766590000018,0.119410038460046
24.6916450000033,0.0123689707252197
24.7101510000005,0.102373472123872
24.7280900000036,0.95002300851047
24.746126000002,2.04325625585625
24.7636089999974,2.4219180510263
24.7808800000027,2.766506713524
24.7981780000031,2.94072971265996
24.8164420000017,2.9876606312464
24.8348530000001,2.95487327716546
24.8532220000029,2.1811560097849
24.8719549999982,0.890555748657789
24.8949540000036,1.03552728483919
24.9130350000039,2.19690679752966
24.9325659999996,2.97158839885378
24.9559090000018,0.533109300245997
24.9752119999975,0.000154074106831104
24.9929729999974,0.00979741354240105
25.011237999998,0.696081736707129
25.0319450000003,2.95873061293969
25.0509809999987,3.03748455166351
25.0705169999972,2.32934199244482
25.0901799999997,0.0483707712846808
25.1079560000002,0.018476419034414
25.1256939999983,-0.0226684958906844
25.144487999998,0.569753990101162
25.1630930000022,2.20494291372597
25.1824189999998,2.96998117561452
25.2030350000039,2.36630812694784
25.2218620000035,1.04484917962691
25.2415439999998,0.0133333046687767
25.263449000001,2.14869010035181
25.2845659999996,3.03973466419848
25.3054149999991,0.741083987406455
25.3259769999981,-0.0146323796943761
25.3463470000029,2.00339711952256
25.3672470000014,3.00823308870895
25.3879629999995,1.64466489251936
25.4070179999992,0.0425847676233388
25.4254010000005,-0.00466759561095387
25.4449780000001,0.85616117133759
25.4639760000035,2.79897262295708
25.4832480000034,2.99601819209056
25.5017269999981,3.00276852969546
25.523186999999,0.0647644483251497
25.5422690000013,-0.0123822671594098
25.5609310000017,0.624399580236059
25.5802749999985,2.36598668229999
25.6002049999982,3.00148275110405
25.6205209999979,1.79317231982714
25.6402700000033,0.0914443540968932
25.6594540000036,0.000796963402535766
25.6789240000024,1.47140622732695
25.6979469999969,2.9262647035066
25.7173489999995,3.01723353884881
25.738138000004,1.79799398954492
25.7601630000025,0.141589719161857
25.7827899999991,2.98733918659855
25.8018980000019,2.92787192674587
25.8206820000038,1.72888339025667
25.8410909999982,0.0390488764969632
25.8623219999969,1.36661527212709
25.882574000001,2.97833873645868
25.9023460000008,2.85490399168339
25.9225850000009,0.367565306602046
25.942324000001,-0.0117393778637052
25.9620850000009,1.23418007721193
25.9818830000013,2.94201549125137
26.0075970000029,0.0322985388920642
26.0293449999988,1.46754889155272
26.0533390000016,2.49617176468018
26.0755729999989,-0.0101321546244435
26.0911199999973,0.019440752977971
26.1041110000014,1.63855744421016
26.1160209999979,2.98348185082432
26.1315790000036,2.93847960012499
26.147189000003,2.92594325885875
26.1613379999995,0.973488467803691
26.1743310000002,0.0191193083301187
26.1888690000027,0.397781103500165
26.2027459999993,2.15158310218249
26.2179589999989,3.00598297617398
26.2320340000018,2.97126695420593
26.2466850000024,2.53056634200038
26.261513000004,1.12199589511147
26.2764320000038,0.0936944666318595
26.2943929999992,1.12681756482925
26.3078819999993,0.00497574382461607
26.3209210000038,1.61284187238198
26.3361220000014,2.26601739681792
26.3502159999982,3.01691209420096
26.3645050000027,2.94748005026486
26.3791670000032,2.05900704360101
26.3961290000007,2.23933749104617
26.4109069999978,0.86998329119524
26.4242569999993,0.0220123101607896
26.4391689999998,0.0644430036772974
26.4522290000021,2.76618526887614
26.4670139999986,3.04037755349418
26.4807339999974,2.83111708774231
26.4945029999986,1.10913810919737
26.5093430000022,0.0236195334000513
26.5254120000005,-0.00338181701954454
26.5393709999993,0.147697167471051
26.5551740000024,0.655901155725587
26.5710780000016,1.35536470945226
26.586501000002,2.17183411499718
26.6011630000025,3.00534008687828
26.6185790000036,2.68935999803944
26.6349240000024,2.97030262026237
26.6531740000024,2.25765983597375
26.6713620000035,1.18499904609052
26.6962990000024,2.05064948275685
26.7204310000017,2.36920112877851
26.7420200000033,0.00754730100743473
26.7641799999997,2.88769134576432
26.7854399999976,2.94555138237774
26.8081979999989,0.00401140988105908
26.8281319999993,0.889591414714232
26.8509160000011,3.02076942997519
26.8742599999979,0.0348700960748829
26.9025029999986,3.01498342631385
26.9299769999981,1.7886720947572
26.9566140000001,0.0927301326883025
26.9956660000011,1.15928347426234
27.0272150000036,0.0419418783276342
27.0570329999998,1.13485368102556
27.0883280000016,1.66363012674265
27.1117660000026,0.913378318655305
27.135189000003,2.98733918659855
27.1602100000009,0.0988375809974968
27.1852430000007,2.94908727350412
27.2091389999986,-0.0139894903986715
27.2358969999999,2.91565703012748
27.2614780000001,0.590005002915859
27.2914020000026,0.0393703211448155
27.318574000001,2.96387372730533
27.3457660000026,1.3119696819922
27.3696939999983,2.53635234566173
27.3937950000018,0.318705720128492
27.4108570000008,0.640471812628675
27.4268599999994,0.168912514229305
27.443689000003,0.415139114484191
27.4601689999998,0.321598721959163
27.4780890000015,1.11524555750657
27.496310999997,2.12554608570645
27.5132990000024,2.60160560917575
27.5298669999987,2.27308917907067
27.5467520000041,2.75075592577923
27.5661159999967,2.99087507772492
27.5818350000009,2.96965973096667
27.5982360000014,2.9600163915311
27.6139240000024,2.86840466689318
27.6313709999993,2.95808772364398
27.6520429999977,3.03459154983284
27.6727819999978,0.0785865681828
27.6914619999975,0.0104403028381057
27.710560999997,0.435068682651035
27.7273859999999,0.450176581100095
27.7461169999987,1.73209783673519
27.766435999997,2.99698252603412
27.7861620000005,2.3193772083614
27.8032070000023,2.13808242697269
27.8221510000005,0.281418140977621
27.8386789999977,0.484249713772442
27.8541150000021,1.50965814042138
27.8680590000004,2.99151796702063
27.8828200000003,2.98894640983781
27.8983519999981,2.96869539702311
27.9133589999974,2.40423859539442
27.9293610000014,2.17633434006711
27.9448479999974,1.29943334072595
27.9610389999971,0.705403631494846
27.9787540000007,1.50772947253427
27.9960530000031,2.25251672160812
28.0122990000024,1.87224770319881
28.0282009999976,1.21328617510153
28.0445520000011,0.790586463175714
28.0599020000026,0.315169829002116
28.0746180000007,0.00368996523320675
28.0880469999984,1.09788754652254
28.1010850000009,3.04037755349418
28.1144890000001,2.94555138237774
28.1288079999983,1.51062247436494
28.1492650000006,2.98283896152861
28.1668310000002,2.99891119392123
28.1846230000034,3.05966423236532
28.2051429999992,1.13903246144764
28.2304139999971,2.71989723958541
28.2518849999979,2.94040826801211
28.2765839999989,-0.0236328298342414
28.2989210000038,2.97094550955808
28.3197950000018,2.28273251850624
28.3404549999982,0.0522281070589088
28.3621490000039,1.17664148524636
28.3824479999989,2.97319562209304
28.401137000002,3.02334098715801
28.4188479999974,2.82083085901104
28.4374659999982,1.48426401324105
28.4559689999968,0.225486772251315
28.4733540000021,0.0522281070589088
28.4924739999995,0.00433285452891141
28.5086199999973,0.000475518754683435
28.5278859999999,0.94166544766631
28.5458589999974,1.94007252389565
28.563063000001,2.43091850116616
28.5812210000008,2.95487327716546
28.5998390000015,2.99923263856908
28.6186620000005,2.73243358085165
28.6374670000002,1.48844279366313
28.6522910000011,2.95230171998264
28.6682009999976,3.05194956081687
28.6873999999985,1.47976378817111
28.7045169999972,1.40068840479944
28.7222060000002,0.360493524349295
28.7409170000032,0.025226756639313
28.7586290000007,-0.0127037118072622
28.7757370000035,0.0200836422736757
28.7929139999971,0.134517936909106
28.8101159999967,0.27306058013346
28.8283020000011,1.23675163439475
28.8460310000032,2.16347655415302
28.8643229999989,2.92722903745016
28.8820359999985,2.97383851138875
28.899810999997,3.00373286363902
28.9171670000032,3.04327055532485
28.9377070000023,1.46883467014413
28.9573299999982,0.024262422695756
28.9741300000027,0.0220123101607896
28.9923519999981,-0.0152752689900808
29.0104670000002,0.489392828138079
29.0297060000002,2.28916141146328
29.0489860000014,2.9815531829372
29.0685139999986,2.98605340800714
29.0887800000012,0.862268619646784
29.1124949999973,1.73145494743949
29.1299890000001,1.92850051657297
29.1505930000022,3.01369764772244
29.1704750000015,1.78545764827868
29.1921309999973,-0.00852493138518184
29.2096510000005,0.150590169301722
29.2248559999987,0.0297269817092456
29.2445930000022,1.01334760413738
29.2617569999993,1.33993536635535
29.2793549999967,2.19497812964255
29.2972569999993,2.93076492857654
29.3156969999969,2.98219607223291
29.333688000001,3.03748455166351
29.3505869999975,3.03201999265002
29.3677040000036,2.97641006857157
29.3832760000005,2.98508907406358
29.4024930000007,2.35152167314664
29.4209200000018,1.61316331702983
29.4393570000008,0.242201893939637
29.4567690000013,0.0313342049485072
29.4733900000006,0.0390488764969632
29.4911569999978,0.0104403028381057
29.5093730000034,0.0711933412821963
29.5267159999982,0.294275926891714
29.5424430000037,0.107838031137362
29.551949000001,2.72118301817682
29.565939000003,3.00019697251264
29.5766740000024,0.218093545350712
29.5897810000032,0.0374416532577015
29.6006469999999,3.03652021771995
29.6136840000004,2.93205070716795
29.627063000001,0.779335900500882
29.6396300000027,0.0400132104405202
29.6518859999999,2.81279474281473
29.665762000002,2.99280374561204
29.6775209999979,0.710546745860483
29.6911579999998,-0.00273892772383988
29.7030799999982,1.92882196122082
29.7155109999999,2.99408952420345
29.726498999998,0.109123809728771
29.7388900000006,0.065085892973002
29.7512950000018,2.98187462758506
29.7643360000029,2.95519472181331
29.7774219999984,0.880590964574367
29.7903800000027,0.0200836422736757
29.8018969999999,2.69482455705293
29.8147470000014,2.96869539702311
29.8279830000028,1.50226491352078
29.8397370000035,0.0477278819889762
29.8535350000039,1.63437866378808
29.8662599999979,3.00919742265251
29.8838519999981,3.02559109969297
29.9022440000027,2.63953607762232
29.9211019999981,1.2026785017224
29.9356469999999,2.63889318832662
29.9534909999967,2.15061876823893
29.9721950000003,0.548217198695056
29.9904430000037,0.0274768691742793
30.0088290000036,0.0165477511473
30.0270040000007,0.455319695465732
30.0445109999999,1.10945955384523
30.0621070000008,1.52251592633547
30.0806539999992,2.92497892491519
30.0984890000001,2.97158839885378
30.1155480000004,2.98412474012002
30.1329399999976,2.99537530279486
30.1507089999989,3.04905655898619
30.1680920000002,2.89926335308701
30.1873170000017,1.57555429323111
30.2065190000013,0.0406560997362249
30.2238969999999,0.0255482012871653
30.2405350000039,0.0258696459350176
30.2575310000032,0.0207265315693803
30.274949000001,0.000796963402535766
30.2933809999973,0.347314293787349
30.3117189999968,1.34957870579092
30.3307880000025,2.93622948759003
30.3508819999993,3.05323533940827
30.3702910000011,1.91789284319384
30.3898280000016,0.0441919908626005
30.4073889999986,0.021369420865085
30.4268229999989,0.26888179971138
30.4458400000036,2.22069370147074
30.4632719999999,2.22872981766704
30.4811670000032,2.92787192674587
30.4990970000029,2.99183941166848
30.516262000002,3.0011613064562
30.5335590000004,3.01466198166599
30.5509010000005,3.01498342631385
30.5686960000023,2.594533826923
30.5882840000018,0.655579711077735
30.6064579999968,0.0596213339595124
30.6241789999977,0.017512085090857
30.6429579999968,0.174055628594942
30.660686999999,0.692867290228605
30.6789540000036,2.13776098232483
30.695013000004,1.08631553919986
30.7128439999968,2.35570045356872
30.7306230000034,2.93880104477284
30.7488659999967,2.98476762941573
30.767575000003,3.05516400729539
30.7851550000012,2.60160560917575
30.8025399999991,2.34412844624603
30.819560999997,2.07700794388074
30.8370200000033,1.76134929968975
30.8555769999996,0.216807766759302
30.8736389999986,0.0361558746662922
30.8915579999983,-0.00884637603303418
30.9072309999987,0.0400132104405202
30.9266810000017,0.166340957046486
30.9443830000013,1.18757060327334
30.9590109999999,-0.0155967136379331
30.9759750000015,0.176948630425613
30.9892950000018,0.0490136605803855
31.0016410000026,2.76522093493259
31.0147320000008,2.97801729181083
31.0256490000039,0.0101188581902534
31.0395169999972,0.0393703211448155
31.0518849999979,2.50292210228508
31.0649050000012,2.97769584716298
31.0796389999986,2.44859795679804
31.0959469999969,2.56881825509481
31.1101349999979,0.454033916874323
31.1252749999985,0.0062615224160254
31.1400780000016,0.0355129853705876
31.1568969999999,0.0316556495963596
31.1734790000021,0.0345486514270306
31.1899760000035,0.0287626477656886
31.2073859999999,0.010761747485958
31.2224280000031,0.0596213339595124
31.2395970000029,0.0467635480454192
31.2592870000005,0.0249053119914606
31.2789970000014,1.73499083856586
31.3003350000009,3.01369764772244
31.3219790000021,0.562682207848411
31.3449549999982,1.14128257398261
31.3662330000028,2.99473241349915
31.388935999997,0.701867740368471
31.4112239999995,0.83687449246645
31.4314079999998,2.95294460927835
31.4542060000002,1.37850872409763
31.4761620000005,0.0538353302981704
31.4975209999979,2.92980059463298
31.5221089999974,1.36693671677494
31.5433809999973,0.118124259868637
31.564237999998,2.81729496788466
31.5877210000008,1.38011594733689
31.6122980000004,1.61380620632553
31.6347859999984,2.88865567970788
31.6563650000021,0.0654073376208544
31.6802129999995,2.7462557007093
31.7057840000018,0.233844333095476
31.7291579999998,1.65591545519419
31.7524980000034,2.09790184599115
31.7672320000008,3.02751976758009
31.7817639999986,2.98187462758506
31.7993549999967,3.00373286363902
31.8154109999985,2.98476762941573
31.8316780000031,2.9741599560366
31.8471389999986,2.94394415913848
31.8634430000037,2.91597847477533
31.8820139999986,2.9815531829372
31.8986899999976,2.96162361477036
31.9152990000024,2.98669629730284
31.9285710000023,1.88221248728223
31.9420939999968,0.0277983138221316
31.9570359999984,0.018476419034414
31.969251000002,2.02043368585873
31.9811279999986,2.96387372730533
31.9943640000001,1.26182431692723
32.0090279999971,0.0551211088895798
32.0257210000008,0.119088593812194
32.0450820000023,1.73016916884808
32.0615370000005,1.41483196930494
32.077376000002,0.871590514434502
32.0942150000036,0.712475413747597
32.1136649999991,2.91662136407103
32.1323830000013,2.99633963673841
32.1545040000007,1.01688349526376
32.1734589999989,0.0457992141018622
32.1936840000004,0.465605924197007
32.2134310000017,2.83111708774231
32.2332309999987,2.99987552786479
32.254748999998,1.06477874779375
32.2748709999993,-0.00209603842813522
32.2937529999986,0.308098046749365
32.3112309999987,1.3193629088928
32.3299589999989,2.8844768992858
32.3499069999978,3.00244708504761
32.3716120000035,0.616042019391898
32.3911019999981,0.00240418664179742
32.4091469999999,0.129374822543468
32.426811999999,0.425746787863318
32.445063000001,1.91178539488465
32.4609739999995,1.32129157677991
32.477074000001,0.878662296687253
32.4938840000033,0.907592314993963
32.5084469999969,-0.0242757191299461
32.5258589999974,0.216164877463598
32.5422810000032,0.104623584658839
32.5587950000018,0.0634786697337404
32.5754809999987,0.0596213339595124
32.5924160000011,0.19719964324031
32.6097760000005,0.462391477718484
32.6239280000031,0.012690415373072
32.6403489999995,0.0171906404430047
32.6562030000016,0.0486922159325331
32.6706520000026,1.47558500774903
32.6884399999976,1.03295572765637
32.7051909999996,0.350850184913725
32.7224689999968,0.0564068874809891
32.7387569999993,1.10881666454952
32.7558339999989,0.0451563248061575
32.7678620000035,2.66943042987259
32.7804610000029,2.94619427167345
32.7919420000017,0.0351915407227352
32.8030040000007,1.48297823464964
32.8134860000014,2.92080014449311
32.8261429999992,0.530537743063178
32.8377170000002,1.0509566279361
32.8473699999973,2.96258794871392
32.8587360000014,-0.00273892772383988
32.872199000001,0.0663716715644114
32.8883929999992,0.234165777743328
32.902748999998,2.08086527965497
32.9192990000024,1.88124815333867
32.9340680000037,3.0840940256021
32.9501019999981,3.05291389476042
32.9660020000041,3.0085545333568
32.9813779999986,2.96965973096667
32.9989970000014,3.00373286363902
33.0178680000007,2.7530060383142
33.0349399999976,2.64660785987508
33.0512280000001,2.68228821578668
33.0674189999998,3.03041276941076
33.0856620000005,2.09500884416047
33.1037910000011,1.30939812480938
33.1228149999976,0.0406560997362249
33.143237999998,0.21230754168937
33.1627910000011,2.82436675013741
33.1826290000007,2.99633963673841
33.205075000003,0.339278177591041
33.2254020000026,0.0277983138221316
33.2440689999983,0.984096141182818
33.2613889999986,1.63277144054882
33.2790989999995,2.37337990920059
33.2992400000021,2.99601819209056
33.3197550000027,1.72245449729962
33.3375279999971,0.925593215273693
33.3554280000031,0.0628357804380357
33.3751679999977,-0.0159181582857855
33.3977960000038,2.97962451505009
33.4113049999997,2.00789734459249
33.4244420000017,-0.030061722791288
33.4389029999971,0.0634786697337404
33.4569329999983,0.00883307959884405
33.4726480000019,0.0493351052282378
33.4863350000009,1.63052132801386
33.4997889999971,3.0085545333568
33.5152140000015,2.98283896152861
33.5278350000009,1.60802020266419
33.5414579999968,-0.000488815188873559
33.5554329999983,0.0451563248061575
33.567762000002,2.89990624238271
33.5822159999982,3.00276852969546
33.5994079999998,2.99794685997767
33.6189340000004,1.92721473798156
33.638763000004,0.0686217840993777
33.6625209999979,1.77613575349096
33.6909409999996,0.00754730100743473
33.709873999998,0.421246562793385
33.7296199999973,2.78868639422581
33.7500570000038,3.04005610884633
33.7702390000001,1.50451502605574
33.7910050000027,-0.0133466011029668
33.8087929999977,0.0904800201533362
33.8274650000036,1.18660626932979
33.8459530000016,2.58264037495246
33.8642079999968,2.95487327716546
33.8845570000038,2.70864667691058
33.9044980000034,0.787693461345043
33.9247749999985,-0.0355262818047777
33.9420169999972,0.0570497767766938
33.9583800000027,0.111373922263738
33.9707880000025,0.934915110061411
33.986875,1.0914586535655
33.999574000001,3.01916220673593
34.0146099999994,2.9809102936415
34.031550999999,2.98605340800714
34.045637000002,2.49231442890596
34.0595680000037,0.551431645173579
34.071811999999,0.0628357804380357
34.083064000003,3.03459154983284
34.0939310000017,1.35343604156515
34.108626000002,0.00690441171173006
34.1275820000023,1.4501908805687
34.1438859999999,1.02491961146006
34.159814000003,0.720190085296053
34.1769640000015,0.923664547386579
34.1968929999992,2.94940871815197
34.2148889999986,2.97126695420593
34.2318730000034,2.99280374561204
34.2487840000018,2.98637485265499
34.2664860000014,3.04423488926841
34.283449000001,3.02173376391875
34.304439000003,0.66875894163968
34.3217829999998,0.440854686312377
34.346561999999,2.93558659829432
34.3657859999985,2.99730397068197
34.3847779999971,2.50452932552435
34.4033070000038,1.40004551550373
34.4210710000023,0.557217648834921
34.4382770000026,0.824016706552356
34.4612800000012,1.91660706460243
34.4787140000016,2.50195776834153
34.4958519999981,2.79607962112641
34.512688000001,2.76811393676326
34.5301620000005,2.9539089432219
34.5473360000029,2.97223128814949
34.5641059999987,2.97126695420593
34.5804439999983,2.96355228265747
34.5979750000015,2.97287417744519
34.6146359999999,2.98605340800714
34.6307159999982,2.96580239519244
34.6479970000014,2.98926785448566
34.6658430000022,3.02109087462304
34.6831670000032,3.09180869715055
34.7008229999989,2.98123173828935
34.7182829999998,2.52317311509978
34.7346309999973,2.73725525056943
34.7511349999979,2.71443268057192
34.7700270000026,1.42865408916259
34.7872199999988,1.1332464577863
34.8052910000011,0.193663752113935
34.820998999998,0.667473163048271
34.8372910000011,1.17985593172489
34.8530090000033,1.8635686977068
34.8701230000034,1.58744774520164
34.8881719999984,1.15864058496663
34.9055260000005,0.195592420001049
34.9247009999976,0.119731483107898
34.941998999998,0.370136863784865
34.9580410000011,0.0872655736748129
34.9754980000034,0.436354461242445
34.9937060000002,1.25603831326589
35.0105160000026,1.31904146424495
35.0279699999988,2.06672171514947
35.0462110000029,2.9458728270256
35.0639919999987,2.97448140068445
35.0833699999973,3.08923713996774
35.1003950000033,3.08698702743277
35.1189799999967,1.87256914784666
35.1356740000024,1.73241928138305
35.1550020000041,0.818873592186719
35.1718510000035,0.153483171132393
35.1896030000001,0.0316556495963596
35.2081939999983,0.0654073376208544
35.2256340000033,0.438283129129559
35.2421169999987,0.775157120078802
35.2593290000036,1.649808006885
35.2749029999971,1.39393806719454
35.2926140000001,2.37145124131348
35.310299999997,2.91244258364895
35.3289860000014,2.95873061293969
35.3479060000032,3.0361987730721
35.3646810000017,3.0435919999727
35.3813420000002,3.03684166236781
35.3987480000034,3.07637935405364
35.4166389999986,3.14709717658116
35.4346510000005,3.27342492318712
35.452013000004,3.25574546755524
35.4698980000019,3.25188813178102
35.487800999999,3.20945743826451
35.5054079999998,3.18663486826699
35.5235240000039,3.14066828362411
35.541700000003,3.03909177490277
35.5589090000018,0.200092645070981
35.5768919999972,0.628899805305991
35.5949570000023,1.78063597856089
35.6129420000017,2.95937350223539
35.6303100000024,2.96708817378385
35.6482220000029,2.99183941166848
35.667262000002,1.48876423831098
35.6877040000036,0.0930515773361549
35.7053510000035,0.0760150109999813
35.723248999998,0.00754730100743473
35.7401510000005,-0.00306037237169221
35.7569809999987,-0.0172039368771948
35.7745279999971,-0.091136205883231
35.7922110000029,-0.157032358692959
35.8098299999982,0.553681757708546
35.8275389999971,1.59291230421513
35.8457529999986,2.71378979127621
35.8643610000014,2.966766729136
35.8825780000016,2.68293110508239
35.9011950000003,0.844267719367053
35.9192550000027,0.112659700855147
35.9383699999973,0.0502994391717948
35.9569460000023,-0.0175253815250471
35.9745560000017,-0.096922209544573
35.9931829999983,0.977988692873623
36.0109519999996,1.93685807741713
36.0289970000014,2.91469269618392
36.0471780000031,2.96098072547466
36.0642709999979,2.95840916829184
36.0824029999971,2.9465157163213
36.102063000001,0.113302590150852
36.1206579999998,0.0592998893116601
36.1363640000001,0.0801937914220616
36.1570439999998,-0.0535271820845082
36.1745050000027,-0.100779545318801
36.1929010000005,-0.247358304739464
36.2115649999976,-0.2316075169947
36.2297520000041,-0.194641382491682
36.2479329999983,-0.143210238835309
36.2656700000018,-0.091136205883231
36.2834980000034,0.0281197584699839
36.3013830000013,0.0644430036772974
36.3187870000005,0.0480493266368285
36.3353470000029,0.0615500018466264
36.3563269999996,-0.043562398001086
36.3727929999977,-0.0442052872967906
36.3890719999969,-0.0255614977213554
36.4067779999971,-0.0541700713802129
36.4231490000039,-0.0409908408182673
36.4405059999973,-0.0888860933482647
36.4588039999977,-0.225178624037653
36.4757690000013,-0.143210238835309
36.4929189999998,0.176948630425613
36.5093580000028,0.182091744791251
36.5266600000039,1.00113270751899
36.5442210000008,2.05322103993967
36.5601180000007,1.00852593441959
36.5775230000019,2.45663407299435
36.5955469999984,2.91758569801459
36.6127459999993,2.93430081970291
36.6301620000005,2.96098072547466
36.6471909999996,2.96355228265747
36.6637409999967,2.95680194505258
36.6810249999985,2.9809102936415
36.6986429999992,3.01048320124391
36.716324000001,3.12813194235787
36.733013000004,3.11013104207814
36.7502309999987,3.13134638883639
36.7665909999982,3.14388273010263
36.7836679999977,3.06416445743525
36.8008669999987,3.14709717658116
36.8185200000033,2.30041197413811
36.8361899999976,1.58744774520164
36.8538170000017,0.993096591322683
36.8712079999968,0.835267269227188
36.8878079999983,0.598041119112168
36.9072320000008,0.789300684584305
36.9263929999992,2.36662957159569
36.9463770000041,2.98187462758506
36.9649949999973,3.02366243180586
36.9819949999973,3.0361987730721
36.998685999997,3.03941321955062
37.0160310000032,3.09855903475545
37.0340670000017,2.8568326595705
37.0492330000028,3.09566603292478
37.0662049999982,3.13841817108914
37.0822590000033,3.05323533940827
37.0989650000036,3.06802179320948
37.1149469999969,3.03844888560707
37.1313650000021,3.02301954251016
37.1473170000017,3.01016175659606
37.1629109999985,2.97801729181083
37.1793559999987,2.97737440251512
37.1959450000003,2.97287417744519
37.212,2.94876582885627
37.2278969999999,2.9262647035066
37.2440080000013,2.91597847477533
37.260686999999,2.91372836224036
37.2766169999987,2.90601369069191
37.2927339999974,2.69996767141856
37.3087779999971,1.7880292054615
37.3251319999993,1.71570415969472
37.3412049999982,0.910485316824634
37.3573800000027,0.719868640648201
37.3730359999985,0.245737785066012
37.3905879999995,0.639507478685118
37.406637000002,0.268238910415675
37.4232430000007,0.23995178140467
37.4406710000038,0.529251964471769
37.4576159999967,0.780621679092292
37.4743900000006,0.653329598542769
37.491800999999,1.38783061888535
37.5086780000031,1.44890510197729
37.5251499999985,1.33447080734186
37.5411689999998,0.53632374672452
37.5571140000001,0.219700768589973
37.5733659999967,0.221307991829235
37.5892669999972,0.0416204336797819
37.6066270000041,0.0519066624110565
37.6251979999989,1.37432994367555
37.6413470000029,0.673902056005318
37.6579769999981,0.863232953590341
37.6748219999969,1.02170516498154
37.6917009999976,1.01559771667235
37.7088409999982,1.42447530874051
37.7253489999995,1.32064868748421
37.7418530000001,1.15446180454455
37.7594340000004,2.07572216528933
37.7759069999978,1.99343233543914
37.7922920000032,1.39458095649024
37.8096190000027,2.34830722666811
37.8251030000001,0.659758491499815
37.8417859999985,0.791550797119271
37.8580710000023,0.580040218832437
37.8763200000003,2.3955595899024
37.8928149999976,1.47333489521407
37.9088170000017,0.847803610493429
37.9253809999973,1.06831463892013
37.9423430000022,1.28689699945971
37.9587550000027,0.642721925163642
37.9756429999992,0.932343552878592
37.9917170000002,0.399709771387279
38.0081150000021,0.0114046367816627
38.0243640000001,0.0210479762172326
38.0424940000027,1.35472182015656
38.0594240000024,0.976702914282214
38.0779079999998,2.67521643353393
38.0978210000023,3.00566153152613
38.1169289999977,2.75429181690561
38.1363259999976,0.189484971691854
38.157311999999,-0.0631705215200782
38.1785839999989,2.93205070716795
38.1996429999992,2.94812293956056
38.2169689999968,2.66557309409836
38.2337740000039,2.40873882046435
38.2512250000015,1.14385413116543
38.2685249999985,1.26825320988428
38.2857129999995,0.408710221527144
38.3027550000027,0.115231258037966
38.3204560000002,0.0917657987447456
38.338549999997,0.0634786697337404
38.3564640000016,0.00851163495099172
38.3766740000024,2.11075963190524
38.396,2.93880104477284
38.4139200000018,2.98573196335929
38.4306649999991,2.97994595969794
38.447362999998,2.98926785448566
38.4639100000039,2.98412474012002
38.4797990000024,2.96098072547466
38.4965270000026,2.96548095054459
38.5129439999983,2.95294460927835
38.528998999998,2.93558659829432
38.5454420000017,2.9053708013962
38.5632730000019,2.97930307040224
38.5796499999985,2.96837395237526
38.5959570000023,2.95776627899613
38.6125289999992,2.95551616646117
38.6284160000011,2.93365793040721
38.6450790000036,2.92915770533727
38.6621700000018,2.9458728270256
38.6790490000024,2.9539089432219
38.695112999998,2.9256218142109
38.7121590000018,2.9397653787164
38.7301950000003,2.98476762941573
38.7457199999988,2.9397653787164
38.7614200000018,2.91083536040969
38.7782920000032,2.91115680505754
38.7924790000021,1.59741252928507
38.8036340000033,0.0811581253656186
38.8144750000015,3.00984031194821
38.8265530000031,1.99793256050907
38.8388430000022,0.0120475260773674
38.8511309999973,1.09403021074831
38.8621810000017,2.94619427167345
38.8747740000039,0.694474513467867
38.8871159999967,0.073764898465015
38.8991810000017,2.9047279121005
38.911300999999,2.92755048209801
38.9233390000015,-0.0683136358857155
38.9340860000029,1.62473532435251
38.9460790000036,2.96451661660103
38.9579340000004,0.109123809728771
38.9691539999992,0.0956231345189735
38.9811930000037,3.00759019941324
38.9937150000036,2.71121823409339
39.0054849999994,0.0290840924135409
39.0162170000002,2.56303225143347
39.0286969999969,2.94490849308204
39.0403189999983,-0.0551344053237699
39.0507880000025,1.47140622732695
39.0624469999969,2.95615905575687
39.0740020000041,0.0345486514270306
39.0845949999988,1.35761482198723
39.0967089999989,2.9809102936415
39.1085300000012,0.83687449246645
39.1200879999995,0.0773007895913906
39.1311939999983,3.00437575293472
39.1450680000037,2.93269359646365
39.1587529999986,0.897948975558393
39.1723940000013,0.011726081429515
39.185626000002,0.100123359588906
39.1997730000019,2.85297532379627
39.2126199999973,2.95101594139123
39.2287210000008,2.92947914998513
39.2459299999997,2.95712338970043
39.2665890000016,2.76457804563688
39.2882590000033,0.0570497767766938
39.3059329999983,0.0229766441043466
39.3260820000023,1.34507848072099
39.3448020000011,2.91629991942318
39.3644160000011,2.99248230096418
39.3853070000038,0.379458758572582
39.4098269999996,1.31711279635783
39.430564000003,2.98476762941573
39.452949000001,0.0943373559275642
39.4787229999974,2.92594325885875
39.5097679999992,1.33864958776394
39.5352969999984,0.484892603068147
39.560626000002,2.69450311240507
39.5854919999987,0.608327347843442
39.6126829999983,2.91726425336674
39.6374579999968,0.0760150109999813
39.6605090000033,2.25573116808664
39.6835790000036,2.17472711682785
39.7094240000024,1.74977729236707
39.7305680000037,2.98508907406358
39.7529439999983,0.108159475785214
39.7749320000038,0.44953369180439
39.7950490000024,2.90601369069191
39.8267810000032,2.23419437668053
39.8481040000021,3.01144753518747
39.865376000002,3.03684166236781
39.8848400000036,0.399709771387279
39.9031770000011,0.103016361419577
39.9242449999973,0.337670954351779
39.9422199999988,0.944558449496981
39.9554329999983,0.0249053119914606
39.9670970000029,1.61573487421265
39.9800570000038,2.98251751688076
39.9945820000023,2.93012203928083
40.0087409999967,1.01238327019382
40.0214029999971,0.0535138856503181
40.0354540000036,0.122303040290717
40.050450000003,1.88606982305646
40.0659310000017,2.56174647284206
40.0824519999996,2.92208592308452
40.0990900000036,2.93494370899862
40.1142110000029,3.00308997434331
40.1289329999983,2.95905205758754
40.1437009999976,2.88994145829929
40.1602089999989,2.74754147930071
40.175762000002,1.61862787604332
40.1956670000032,2.95519472181331
40.2165920000002,2.54245979397092
40.2366049999967,0.0898371308576316
40.2560219999999,-0.00884637603303418
40.273313000001,-0.0252400530735031
40.2896199999973,-0.0245971637777984
40.3064139999971,-0.0400265068747103
40.3198900000006,0.0824439039570279
40.3344549999982,1.38043739198474
40.3487850000039,2.9606592808268
40.3626429999992,2.95776627899613
40.3763430000022,2.13615375908557
40.3914069999978,0.440211797016673
40.4104090000018,2.88094100815943
40.4289450000003,2.93494370899862
40.4464729999974,2.97448140068445
40.4661169999987,2.98991074378137
40.4866740000024,0.103980695363134
40.5056279999986,0.0220123101607896
40.522748999998,0.00819019030313939
40.5402910000011,-0.0442052872967906
40.5614940000027,2.9256218142109
40.5787390000001,2.93815815547714
40.5984710000008,3.00726875476539
40.6156169999987,2.93494370899862
40.6334970000014,2.4367045048275
40.6508559999987,1.37979450268904
40.6681969999969,0.712153969099745
40.6859219999984,0.197842532536015
40.7030860000029,0.0930515773361549
40.7215020000041,0.0502994391717948
40.7406969999969,-0.0811714217998087
40.7594340000004,1.67102335364325
40.7769720000029,2.88704845646862
40.7943180000037,2.91694280871889
40.8123980000019,2.95905205758754
40.8291920000017,2.95230171998264
40.8464479999989,2.96708817378385
40.8641180000007,3.00630442082183
40.8818420000002,3.04616355715552
40.899435999997,2.79254373000003
40.9172180000022,2.01979079656303
40.934561999999,1.6774522466003
40.953876000002,0.0724791198736057
40.972762000002,0.0114046367816627
40.9908620000035,0.203628536197357
41.0117730000019,2.93333648575936
41.0300810000002,2.98733918659855
41.0478969999999,3.02398387645371
41.0657100000009,2.89508457266493
41.0822980000004,2.85876132745761
41.0994560000002,2.3335207728669
41.1180179999992,0.743976989237126
41.137875,0.0486922159325331
41.1539420000017,0.0753721217042767
41.1732400000021,0.00208274199394509
41.1916359999999,0.339278177591041
41.2109200000018,2.8770836723852
41.2293819999993,2.97480284533231
41.2464849999994,2.97319562209304
41.262700000003,2.96837395237526
41.2786349999979,2.94555138237774
41.2954149999991,2.94908727350412
41.3116330000013,2.94105115730781
41.3281799999997,2.93430081970291
41.344564000003,2.92497892491519
41.3609900000021,2.92883626068942
41.3770059999973,2.88479834393365
41.3966040000021,2.97930307040224
41.4150310000032,3.01819787279237
41.4337870000005,2.30041197413811
41.4510909999982,1.153497470601
41.4710350000039,0.0464421033975668
41.4928350000009,1.37015116325347
41.5131230000034,2.97898162575439
41.5262800000012,2.05579259712249
41.5393379999995,-0.000810259836725891
41.5537210000008,0.071836230577901
41.5683409999981,0.336706620408222
41.5836400000006,1.92142873432022
41.5977419999987,3.00694731011754
41.6121979999989,2.96901684167096
41.6267770000026,2.72632613254245
41.6430069999993,2.01464768219739
41.6613919999972,2.94362271449063
41.6777950000018,2.92947914998513
41.6952440000027,2.9465157163213
41.7095329999998,2.2917329686461
41.7250310000032,0.436033016594592
41.7438840000033,2.90601369069191
41.7592170000002,1.87321203714237
41.7717660000026,0.0226551994564943
41.7850300000012,0.12680326536065
41.7981059999987,3.0361987730721
41.8126199999973,2.96580239519244
41.828811999999,2.96612383984029
41.8444970000014,2.92947914998513
41.8624799999967,2.95455183251761
41.8794160000011,2.97383851138875
41.8959750000015,2.96933828631882
41.9121190000027,2.95423038786976
41.9292810000032,2.97255273279734
41.9462660000026,2.97769584716298
41.9622980000004,2.95680194505258
41.978825000003,2.9539089432219
41.9958709999993,2.96708817378385
42.0114980000034,2.93590804294217
42.0283919999972,2.94426560378633
42.0445909999981,2.92658614815446
42.0605989999995,2.90376357815694
42.0775799999982,2.91597847477533
42.0975300000012,3.01434053701814
42.1150979999974,3.06352156813955
42.1325520000011,2.88126245280728
42.1505200000033,1.67970235913526
42.1694149999991,0.0911229094490409
42.1874240000024,0.0573712214245461
42.205686999999,-0.00306037237169221
42.2233809999973,-0.0499912909581326
42.2401679999977,-0.0104535992722958
42.257189000003,0.0962660238146782
42.2738479999974,0.0808366807177663
42.2905520000011,-0.0130251564551145
42.3065439999998,-0.0454910658882
42.3257210000008,2.08825850655558
42.3426710000038,2.03104135923786
42.3594919999987,2.45470540510723
42.3784809999988,2.94105115730781
42.3957679999992,2.96483806124888
42.4131600000039,2.99248230096418
42.4294200000018,2.9802674043458
42.4461110000014,2.97223128814949
42.4634020000026,2.99151796702063
42.4799640000016,2.98444618476788
42.4961099999994,2.97094550955808
42.5122430000007,2.95776627899613
42.5289560000002,2.96708817378385
42.5458779999986,2.97190984350163
42.5622360000014,2.96644528448815
42.5790040000007,2.96355228265747
42.5952779999971,2.94908727350412
42.6117590000033,2.94619427167345
42.6294420000017,2.97094550955808
42.6479600000009,3.02784121222794
42.6677969999984,1.03038417047355
42.6856040000021,0.105909363250248
42.7048479999974,0.0339057621313259
42.7308299999982,2.99087507772492
42.7632880000025,2.95905205758754
42.7882119999975,0.0284412031178363
42.8073730000034,0.219379323942121
42.826438000001,2.88672701182077
42.8486469999999,3.02494821039727
42.8715659999996,0.0480493266368285
42.8910020000041,0.295240260835271
42.9098180000037,2.54856724228011
42.925763000004,1.85199669038411
42.9430719999969,2.84076042717788
42.9591740000024,2.20847880485235
42.9754640000016,1.28786133340327
42.9916400000006,1.10367355018388
43.0079600000009,0.931379218935035
43.024049999997,0.572646991931833
43.0414340000004,0.621185133757535
43.0579959999993,1.18371326749912
43.0745109999999,0.898591864854097
43.0910769999996,0.811801809933968
43.1079519999996,1.1258532308857
43.1248980000019,1.29011144593824
43.14175,1.53119493182749
43.1575219999999,0.497428944334388
43.1695939999968,0.076657900295686
43.1818290000036,3.03812744095922
43.1951939999983,2.96419517195318
43.2085359999985,1.98861066572135
43.2200179999992,0.0580141107202508
43.2314329999983,3.05612834123895
43.2445380000025,2.9391224894207
43.2573910000026,0.70315351895988
43.2685710000023,0.0930515773361549
43.2817339999974,2.80250851408346
43.2947520000041,2.94748005026486
43.307313000001,0.185306191269774
43.3192370000035,0.073764898465015
43.3306620000005,3.0159477602574
43.343549999997,2.91179969435325
43.3558030000031,0.000475518754683435
43.3692320000008,0.0924086880404502
43.3862009999976,0.0808366807177663
43.401938000001,0.103016361419577
43.4213379999995,0.0457992141018622
43.4378720000014,0.0422633229754865
43.4535920000002,0.069907562690787
43.4701199999973,0.0911229094490409
43.4863940000013,0.0801937914220616
43.5026710000038,0.0917657987447456
43.5204579999968,0.0557639981852844
43.5369020000026,0.0647644483251497
43.5533039999977,0.0789080128306523
43.5724970000014,-0.00981070997659117
43.5891359999999,-0.00145314913243055
43.6055279999971,0.00979741354240105
43.6213790000007,0.0400132104405202
43.6385029999986,0.0435491015668958
43.6581899999976,1.20910739467945
43.6806719999984,3.01144753518747
43.7000719999969,2.02814835740719
43.7212609999999,0.0400132104405202
43.7406450000033,0.21230754168937
43.7581419999972,0.912413984711748
43.7761579999998,2.04486347909551
43.7935389999971,2.90119202097412
43.8089270000011,1.87964093009941
43.8252679999992,1.50997958506923
43.8426930000037,2.84718932013493
43.8585670000017,1.61123464914272
43.8752679999992,1.66363012674265
43.8906710000038,0.238987447461113
43.9073940000013,0.711832524451893
43.9230549999997,-0.0101321546244435
43.9385939999968,0.0220123101607896
43.9544460000023,0.0403346550883725
43.9701059999988,0.0673360055079684
43.9867669999972,0.0724791198736057
44.0042669999972,0.0454777694540098
44.0206679999977,0.0486922159325331
44.0360960000008,0.0798723467742093
44.0516230000034,0.107195141841657
44.0678730000034,0.320634388015606
44.0843329999968,0.509000951657072
44.1004610000029,1.19239227299113
44.1178770000041,0.134196492261253
44.1352129999995,0.0991590256453492
44.1513699999973,0.140946829866152
44.1681660000011,0.207807316619437
44.1860359999985,0.0744077877607197
44.2030099999979,0.073764898465015
44.2196209999993,0.0734434538171627
44.2360279999971,0.0853369057876989
44.2524109999985,0.0856583504355513
44.268200000003,0.180484521551989
44.2844130000025,0.995025259209797
44.3014680000022,0.176627185777761
44.318824000001,0.0843725718441419
44.3363409999981,0.0811581253656186
44.3525380000025,0.0830867932527326
44.3688489999995,0.0991590256453492
44.3881939999983,0.0255482012871653
44.4046159999967,0.0522281070589088
44.4218599999994,0.0454777694540098
44.4408659999967,0.694795958115719
44.4574860000014,0.496143165742978
44.4741670000032,0.589362113620155
44.4913299999982,1.40325996198226
44.5089729999974,2.37016546272207
44.5262119999975,2.49424309679307
44.5429340000004,2.88126245280728
44.5603189999983,2.91662136407103
44.5778100000024,2.93558659829432
44.5967770000026,3.01273331377888
44.6133020000011,3.00501864223043
44.6315090000033,2.9600163915311
44.649049999997,2.89154868153855
44.6647390000001,2.96612383984029
44.6828720000014,1.66716601786902
44.7032060000002,0.0625143357901834
44.7182880000025,0.100444804236759
44.7367180000022,0.0576926660723984
44.7529640000015,0.0692646733950824
44.7715590000004,0.0335843174834736
44.7893659999967,-0.00820348673732951
44.8072290000021,0.73626231768867
44.8281920000017,2.93108637322439
44.8500249999985,1.14353268651757
44.8671480000019,1.33254213945474
44.8874820000008,0.0438705462147482
44.9062540000007,-0.0110964885680005
44.9254320000038,0.796693911484908
44.9446309999973,2.94522993772989
44.9619900000021,2.96387372730533
44.9803420000002,3.02462676574942
44.996689000003,3.00887597800465
45.0131490000039,3.0011613064562
45.0322760000005,2.13390364655061
45.0485469999984,2.53185212059179
45.064439000003,3.07605790940579
45.0817440000027,2.84172476112144
45.0981340000033,2.78322183521232
45.1164280000031,1.24060897016898
45.133799999997,1.37175838649273
45.1498570000008,1.63662877632305
45.1669610000029,1.23514441115549
45.1838610000014,0.122303040290717
45.1961169999987,2.9815531829372
45.2080960000008,1.68934569857083
45.2189409999996,0.0715147859300487
45.2315829999968,2.67843088001246
45.2436169999987,2.918871476606
45.2564450000003,0.37785153533332
45.2699060000032,0.0554425535374321
45.282950000003,1.305862233683
45.2948990000039,2.96644528448815
45.3072159999981,0.40260277321795
45.3176670000032,0.100444804236759
45.3292859999984,2.99055363307707
45.3422679999992,2.40616726328153
45.3541600000039,0.023298088752199
45.365626000002,2.1670124452794
45.3783159999996,2.96869539702311
45.3905810000002,0.946808562031947
45.4013500000015,0.0940159112797119
45.4135960000008,3.00341141899116
45.4309139999971,3.04712789109908
45.4478090000004,2.92819337139372
45.465185999997,2.78193605662091
45.4816190000027,2.96580239519244
45.4978669999987,3.06127145560458
45.5172770000026,0.977988692873623
45.5389839999974,-0.000810259836725891
45.5626349999979,2.97512428998016
45.5849519999996,0.104302140010986
45.6112409999967,2.9397653787164
45.6332920000032,1.90728516981471
45.657310999997,0.129053377895616
45.6799710000008,2.99473241349915
45.703311999999,0.0573712214245461
45.7344350000024,0.310026714636479
45.7575329999998,0.894734529079869
45.7783460000008,2.95294460927835
45.800376000002,1.11267400032375
45.818550999999,0.0744077877607197
45.8407969999984,1.01688349526376
45.8558819999993,-0.0422766194096766
45.8696529999971,0.0583355553681031
45.8839310000017,0.112981145502999
45.8986209999993,2.19497812964255
45.9132660000026,3.00019697251264
45.9262210000008,2.90440646745265
45.938310999997,-0.000167370541021228
45.949623999998,1.20782161608804
45.9626799999997,2.99473241349915
45.9747210000008,1.66330868209479
45.9853559999987,0.0686217840993777
45.9967870000005,3.02816265687579
46.009299999997,2.83079564309446
46.0212070000023,0.0178335297387093
46.0325549999997,1.83013845433015
46.0451590000018,2.97062406491023
46.0576190000027,1.0509566279361
46.0688549999967,0.076657900295686
46.0817840000018,2.69353877846152
46.0987480000034,2.52445889369119
46.1190850000009,0.0692646733950824
46.1421780000031,1.50965814042138
46.1621330000013,2.96644528448815
46.1837899999991,1.28914711199468
46.2087910000011,1.8359244579915
46.2291270000041,2.97898162575439
46.2475090000033,3.02816265687579
46.264875,2.9121211390011
46.2815939999968,2.85972566140117
46.2988350000009,2.66010853508487
46.3166520000026,1.90214205544908
46.3349120000005,0.0953016898711212
46.3535759999976,0.0580141107202508
46.373987999998,0.60800590319559
46.3946309999973,2.96130217012251
46.4210829999968,0.0290840924135409
46.443887000002,2.92947914998513
46.4686639999971,0.0988375809974968
46.4939350000024,2.90569224604405
46.5192030000016,0.079550902126357
46.5437669999972,2.90858524787473
46.5630700000003,2.98926785448566
46.5834860000014,1.27275343495421
46.6033699999973,0.067014560860116
46.6245099999979,1.44761932338588
46.643189000003,2.92080014449311
46.6629839999974,2.99601819209056
46.6799170000032,2.99891119392123
46.6975080000013,3.06062856630888
46.7113360000029,2.96419517195318
46.7245359999985,1.76070641039405
46.7390879999995,-0.0657420787028968
46.752813000001,0.071836230577901
46.7678969999999,0.109766699024476
46.7803189999983,3.02334098715801
46.7940480000004,2.94265838054707
46.8064849999994,0.283668253512587
46.8193479999974,0.0612285571987741
46.8328580000028,1.86646169953747
46.845688000001,2.98380329547217
46.859998999998,2.9182285873103
46.8728659999967,0.283668253512587
46.8846070000008,0.0914443540968932
46.897061999999,3.0699504610966
46.9118350000009,2.9809102936415
46.9244200000018,0.879305185982957
46.9361410000026,0.0528709963546135
46.9484659999981,2.4981004325673
46.961435999997,2.96805250772741
46.9775530000031,2.94137260195566
46.9981810000017,2.92176447843667
47.0179039999992,0.10751658648951
47.0438489999995,2.92915770533727
47.0628159999996,2.98798207589425
47.0858400000036,0.0821224593091756
47.1091689999998,2.25283816625597
47.132449000001,2.35248600709019
47.1497390000001,1.79831543419277
47.1662030000016,2.24576638400322
47.1840260000005,1.60416286688996
47.2064120000005,-0.0509556249016896
47.226626000002,2.90890669252258
47.2465900000036,3.01209042448318
47.2672070000023,0.593540894042235
47.288425999999,0.0162263064994477
47.3098350000009,2.82886697520735
47.3290890000016,2.9741599560366
47.3496969999969,1.51833714591339
47.3722220000029,0.0207265315693803
47.3941520000026,2.94973016279982
47.4145799999982,3.07187912898371
47.4324930000007,2.14193976274692
47.4470879999995,3.01980509603163
47.4623580000028,2.98380329547217
47.4771789999977,2.93494370899862
47.4912580000013,1.57780440576607
47.5027009999976,0.0592998893116601
47.5156469999999,2.08311539218994
47.526674999997,2.93172926252009
47.5388650000021,-0.0245971637777984
47.5501140000001,0.662651493330486
47.5620249999985,2.98251751688076
47.5738210000023,0.85616117133759
47.5845810000002,0.0830867932527326
47.5963449999988,3.00566153152613
47.608138000004,2.03168424853357
47.6208519999981,0.0123689707252197
47.631200000003,2.71153967874125
47.6480659999996,2.84076042717788
47.6660700000003,1.84942513320129
47.6846480000019,0.0917657987447456
47.701751000002,0.0911229094490409
47.7194149999991,0.0692646733950824
47.7411579999998,1.12071011652006
47.7579439999983,1.52508748351829
47.7751950000003,1.69641748082358
47.7926110000014,2.90151346562197
47.8091820000038,2.60289138776716
47.8262599999979,2.74368414352648
47.8416349999979,1.88189104263438
47.8575059999973,0.763906557403971
47.8736140000001,0.137410938739777
47.8897419999987,0.00143985269824043
47.9060399999991,-0.0364906157483347
47.9214699999988,0.0271554245264269
47.9381290000007,0.0220123101607896
47.9540270000026,0.0316556495963596
47.9702679999992,0.0576926660723984
47.9866440000012,0.0499779945239425
48.0029949999973,0.0557639981852844
48.0186930000037,0.0798723467742093
48.0347360000014,0.0953016898711212
48.0508189999983,0.154126060428098
48.0681030000001,0.0949802452232689
48.0841660000011,0.273703469429165
48.1011230000034,0.0936944666318595
48.1179629999995,0.0962660238146782
48.134949000001,0.0924086880404502
48.151549999997,0.0924086880404502
48.1681960000023,0.0882299076183699
48.1873060000017,0.0393703211448155
48.2068329999968,0.505465060530696
48.2268079999983,2.92980059463298
48.2437719999999,2.93590804294217
48.2600970000029,2.92819337139372
48.2759760000035,2.8777265616809
48.2928449999988,2.90376357815694
48.309625,2.91019247111399
48.3255700000003,2.84911798802204
48.3420380000025,2.7806502780295
48.3584629999995,2.15897632908309
48.3772899999991,2.93494370899862
48.3953390000015,2.98862496518996
48.4109430000037,2.94908727350412
48.426638000004,2.91404980688822
48.4398640000001,0.539859637850896
48.4504029999971,0.106552252545953
48.462487999998,2.99408952420345
48.474450000003,1.58005451830104
48.485251000002,0.0695861180429347
48.4972929999977,3.0079116440611
48.5094809999988,2.91372836224036
48.5218889999986,-0.0152752689900808
48.5330829999968,0.862911508942489
48.5447140000015,2.9741599560366
48.5565270000026,0.719225751352496
48.568061999999,0.0811581253656186
48.5793640000001,3.00726875476539
48.5916700000018,2.46306296595139
48.6025099999979,0.0544782195938751
48.6137269999981,3.05098522687331
48.6302939999998,3.03523443912854
48.646300999999,3.00148275110405
48.6623079999983,2.97994595969794
48.6792529999986,2.99408952420345
48.6958350000009,2.98733918659855
48.7118489999995,2.97030262026237
48.728175999999,2.95744483434828
48.7440460000038,2.9323721518158
48.7602639999986,2.87836945097661
48.7770300000012,2.40359570609871
48.7940310000032,2.39620247919811
48.8101419999972,1.6645944606862
48.8267520000041,1.51094391901279
48.844189000003,1.87481926038163
48.8616730000004,1.8703190353117
48.8777189999968,1.78899353940506
48.8944949999973,2.0091831231839
48.9106089999974,1.31229112664005
48.9264020000026,1.10817377525382
48.9434689999968,1.44986943592085
48.9600839999989,1.31357690523146
48.9761469999999,1.00466859864537
48.9929090000018,1.2020356124267
49.0095340000018,0.821123704721685
49.0261660000011,1.02620539005147
49.0427060000002,0.953558899636846
49.0589909999967,1.02299094357295
49.0753830000013,0.431211346876808
49.0920090000033,0.481035267293919
49.1084650000036,0.693831624172162
49.1246140000001,-0.220356954319868
49.1411939999983,0.0547996642417274
49.1573709999993,-0.228393070516177
49.1744210000038,0.423175230680499
49.1915469999984,0.890877193305641
49.2085480000004,0.938129556539934
49.2265050000027,2.16636955598369
49.2421689999998,1.16474803327583
49.2578580000028,0.385566206881776
49.2739750000015,-0.151246355031617
49.2906150000021,0.181770300143398
49.3089579999968,1.57008973421762
49.3249680000022,1.10431643947959
49.3414970000014,1.09306587680476
49.3582840000018,1.50419358140789
49.3708699999973,-0.00113170448457822
49.382125,1.96771676361095
49.393685999997,2.93655093223788
49.4054029999971,0.0801937914220616
49.4161730000004,1.53215926577104
49.4276099999994,2.9674096184317
49.4399790000021,1.31454123917501
49.4510209999979,0.710546745860483
49.4647070000023,3.16670530010015
49.4764109999984,2.93847960012499
49.4882899999991,0.643364814459346
49.4991150000021,2.61671350762481
49.5109479999989,2.97930307040224
49.5249299999997,2.90022768703056
49.5404689999968,2.39459525595885
49.5571199999973,2.6289284042432
49.5727870000005,1.43154709099326
49.5888809999973,1.09628032328328
49.6053830000013,1.13292501313845
49.6205080000013,0.741405432054307
49.6373460000008,0.91819998837309
49.6533290000036,1.07763653370785
49.6697079999968,2.1326178679592
49.6856169999987,3.15674051601673
49.7027199999988,3.18631342361914
49.7205370000005,3.16959830193082
49.7374120000005,3.16895541263511
49.7539039999992,3.17506286094431
49.769762000002,3.1879206468584
49.7873980000019,3.16541952150874
49.8035839999989,2.78450761380373
49.8197030000016,2.46981330355629
49.8361539999992,2.33673521934543
49.852625,2.54149546002736
49.8682800000012,2.64050041156588
49.8858079999983,2.30362642061664
49.9036150000021,2.09243728697766
49.9197430000007,1.81438766658539
49.9352290000021,1.5749114039354
49.9513699999973,2.04261336656054
49.9672840000018,2.27533929160563
49.9836400000006,2.62860695959534
50.0007709999979,2.07990094571142
50.0175279999971,2.15704766119597
50.0333500000015,2.65946564578917
50.0513790000007,1.72341883124318
50.0685689999983,1.06574308173731
50.0871829999983,0.861304285703227
50.1050490000024,0.259881349571515
50.1249210000038,2.91404980688822
50.1434980000034,2.96290939336177
50.160388000004,2.97608862392372
50.1774849999994,2.98894640983781
50.194262000002,2.98669629730284
50.2077400000021,2.90890669252258
50.2186209999993,0.49228582996875
50.2305879999995,3.14838295517256
50.2442239999995,2.98733918659855
50.2577079999968,2.48234964482253
50.2689310000017,0.0734434538171627
50.2863500000015,0.067014560860116
50.302674999997,0.0573712214245461
50.3148770000041,2.24415916076396
50.3326609999985,1.02556250075577
50.352050999999,0.0621928911423311
50.3700710000023,0.0493351052282378
50.3884839999974,-0.0107750439201482
50.4049219999984,0.00979741354240105
50.4215029999986,0.00336852058535442
50.4378889999986,0.00947596889454871
50.4548530000001,-0.0149538243422285
50.4724289999977,-0.0663849679986015
50.4892250000015,-0.040669396170415
50.5057700000033,-0.131638231512625
50.5215399999991,-0.0258829423692077
50.5369909999967,0.00561863312032074
50.5524610000029,0.0210479762172326
50.5686220000014,0.0409775443840772
50.5850949999988,0.0297269817092456
50.6011150000021,0.0525495517067611
50.6170780000016,0.0711933412821963
50.6328339999989,0.0875870183226652
50.649001000002,0.0953016898711212
50.6642569999993,1.16860536905006
50.681200000003,0.760370666277595
50.6984760000035,0.0956231345189735
50.7151499999985,0.178555853664875
50.7318859999999,0.294597371539567
50.7509820000008,0.0618714464944787
50.7681070000008,0.0515852177632041
50.7860370000005,0.00304707593750209
50.8026789999977,0.0181549743865617
50.8186909999996,0.0290840924135409
50.8358830000013,0.0390488764969632
50.850376000002,0.0734434538171627
50.8629299999997,2.08215105824638
50.8758060000017,1.69384592364077
50.8881569999978,-0.0567416285630316
50.9001930000037,0.077622234239243
50.9128610000014,2.29012574540684
50.9253959999979,1.95164453121834
50.9384909999967,-0.0281330549041741
50.9563210000023,-0.132281120808329
50.9732009999976,-0.0985294327838346
50.9909769999981,0.765513780643232
51.0078020000011,0.794443798949942
51.0242939999998,0.107195141841657
51.0403699999973,0.000154074106831104
51.0573070000038,0.513822621374857
51.0746340000033,1.16249792074086
51.0915520000011,1.33897103241179
51.1078350000009,1.22035795735428
51.1249720000029,1.50869380647782
51.1426510000005,2.88865567970788
51.1609280000031,2.9600163915311
51.1780380000025,2.96387372730533
51.1977639999986,2.99633963673841
51.2153409999982,2.33030632638838
51.2329710000008,1.42415386409266
51.249012000002,1.46787033620058
51.2651930000037,2.17601289541926
51.2816600000039,2.25283816625597
51.2993580000028,1.19239227299113
51.3163299999982,1.16474803327583
51.3335240000039,0.702189185016323
51.350251000002,0.619256465870421
51.3662349999994,1.37883016874548
51.382936999999,1.0644573031459
51.4012110000029,0.0920872433925979
51.4194519999996,0.0744077877607197
51.4364139999971,0.0535138856503181
51.4534189999998,0.0506208838196471
51.4702580000013,0.0319770942442119
51.489450000003,0.188199193100445
51.5073830000013,1.0982089911704
51.5253430000022,2.8770836723852
51.5426969999969,2.90119202097412
51.5592170000002,2.90119202097412
51.5776740000024,2.95069449674338
51.5950879999995,2.98926785448566
51.613310999997,3.02784121222794
51.6304970000014,3.06255723419599
51.6479619999975,2.9526231646305
51.6644579999968,2.97094550955808
51.682311999999,2.33416366216261
51.7012690000013,0.0879084629705176
51.7218400000036,0.021369420865085
51.7384310000017,-0.000488815188873559
51.754299999997,0.0271554245264269
51.7731670000032,0.100123359588906
51.791799999997,2.58006881776964
51.8078039999977,1.93589374347357
51.8249120000005,2.32002009765711
51.842501000002,2.90408502280479
51.8612850000039,2.97801729181083
51.8778950000033,2.97126695420593
51.8977660000026,2.47367063933052
51.914550999999,2.43349005834898
51.9294659999982,3.00405430828687
51.9455029999986,2.98701774195069
51.9618659999967,2.9815531829372
51.977626000002,2.96580239519244
51.9938060000017,2.95101594139123
52.0111190000027,2.97448140068445
52.0273219999969,2.95937350223539
52.0435579999983,2.95165883068694
52.059626000002,2.92947914998513
52.0765680000037,2.94908727350412
52.0929160000011,2.92915770533727
52.109200000003,2.91597847477533
52.1256510000005,2.90858524787473
52.1434189999998,2.9532660539262
52.1605490000024,2.96419517195318
52.1773510000035,2.96612383984029
52.1940879999995,2.966766729136
52.210300999999,2.95680194505258
52.2277529999986,2.98476762941573
52.2453329999968,2.98605340800714
52.2656590000018,2.0914729530341
52.2843489999995,0.243166227883194
52.3085050000027,2.8986204637913
52.3256520000026,2.90794235857902
52.3466319999993,3.05773556447821
52.3672850000039,0.798622579372022
52.3844039999992,0.645936371642165
52.4049670000002,0.0515852177632041
52.4225389999971,0.184984746621922
52.4389619999975,0.214236209576484
52.4554460000023,0.117481370572932
52.4746579999998,2.050328038109
52.4917960000038,2.90569224604405
52.5044010000005,0.0133333046687767
52.5166539999992,0.195913864648901
52.5319570000023,2.42834694398334
52.5472019999996,3.12491749587934
52.5609020000026,2.97383851138875
52.5743170000017,2.06704315979732
52.5909710000008,1.83431723475223
52.6071529999971,1.7468842905364
52.6225879999995,0.0866226843791083
52.6357100000009,0.0461206587497145
52.651564000003,0.065085892973002
52.6660190000012,0.486499826307409
52.6782850000039,2.99055363307707
52.6920260000005,2.88929856900359
52.7061190000027,0.236737334926147
52.7207580000013,0.022333754808642
52.7364469999969,0.0319770942442119
52.756424999997,0.669401830935385
52.7739210000038,1.83721023658291
52.7898589999974,1.15028302412247
52.805188000001,-0.0233113851863891
52.8206049999967,0.0104403028381057
52.8373610000014,0.0191193083301187
52.8582529999986,1.96032353671035
52.8819919999987,1.76809963729465
52.9069870000035,0.666508829104714
52.9342110000029,0.0885513522662222
52.9601719999984,2.92883626068942
52.9837119999975,0.284311142808292
53.0116270000041,2.98348185082432
53.0316840000004,2.766506713524
53.055549999997,0.11169536691159
53.0756510000005,2.88222678675083
53.0961469999999,3.00887597800465
53.118436999999,0.0612285571987741
53.1399310000017,0.0647644483251497
53.1606510000005,2.93847960012499
53.1841469999999,0.105587918602396
53.2043849999979,-0.0104535992722958
53.2196939999983,0.0277983138221316
53.2344399999976,0.0779436788870953
53.2487189999968,1.39875973691233
53.2638439999968,2.78611483704299
53.2802370000035,2.81793785718037
53.294436999999,2.97190984350163
53.306888000004,1.00884737906745
53.3207390000001,0.000796963402535766
53.3371400000006,0.0130118600209244
53.3515659999996,0.0499779945239425
53.365060999997,0.851339501619805
53.3777150000036,2.96998117561452
53.3908320000023,2.59421238227515
53.4016780000031,0.0409775443840772
53.4138669999987,2.27855373808416
53.4255439999998,2.91790714266244
53.4372049999982,-0.000810259836725891
53.4479860000014,1.2640744294622
53.4600590000004,2.94683716096915
53.4752889999971,2.77968594408594
53.4923889999986,2.83497442351654
53.5100069999993,2.94555138237774
53.5274610000029,2.96612383984029
53.5440560000017,2.95519472181331
53.5607400000021,2.95519472181331
53.5772180000022,2.94748005026486
53.5937590000033,2.9458728270256
53.6105319999978,2.94072971265996
53.6277669999972,2.96933828631882
53.6439930000007,2.9458728270256
53.6607299999967,2.95615905575687
53.6773610000014,2.95808772364398
53.6937220000029,2.94683716096915
53.710125,2.94619427167345
53.7271850000024,2.95776627899613
53.7436719999984,2.95133738603909
53.7598430000022,2.92787192674587
53.7761710000038,2.92658614815446
53.7926920000017,2.93044348392868
53.8093170000017,2.92465748026734
53.8263589999974,2.93430081970291
53.8431209999993,2.94973016279982
53.8593020000011,2.91726425336674
53.8775570000038,2.97480284533231
53.8938049999997,2.95712338970043
53.911498999998,2.98251751688076
53.9287969999984,2.99826830462553
53.9453709999993,2.99183941166848
53.9624949999973,3.00405430828687
53.9795040000007,3.00630442082183
53.9976220000014,2.32452032272704
54.0155769999996,0.435068682651035
54.0318489999995,1.3463642593124
54.0484109999985,1.68163102702238
54.064549999997,2.08761561725987
54.0802960000038,2.76843538141111
54.0970350000039,2.90215635491768
54.1132480000034,3.08795136137633
54.1292730000019,3.02655543363653
54.1469710000008,2.89894190843916
54.1640289999992,2.72889768972527
54.1810530000031,2.83240286633372
54.2036120000035,0.0216908655129373
54.2221810000017,0.872554848378059
54.2412899999991,2.73404080409091
54.2610260000005,2.97898162575439
54.2797910000011,3.05130667152116
54.2978570000008,2.99248230096418
54.3175,0.451462359691504
54.3358299999982,0.0441919908626005
54.353936999999,0.0142976386123337
54.3711480000019,0.0197621976258233
54.3929120000005,2.93430081970291
54.4107140000015,2.96805250772741
54.4228350000009,1.70895382208982
54.4364940000027,0.0300484263570979
54.448424999997,1.90342783404049
54.4626469999999,3.10177348123398
54.4758229999989,2.9539089432219
54.4883189999983,0.926878993865103
54.5010260000005,0.0821224593091756
54.5149659999982,1.85135380108841
54.5272210000008,2.98894640983781
54.5392779999971,1.0988518804661
54.5503990000039,0.0882299076183699
54.5643310000002,2.58360470889602
54.5770219999999,2.98251751688076
54.5931609999985,2.95840916829184
54.6090069999993,2.9262647035066
54.6247599999979,2.89894190843916
54.6399439999983,2.03586302895565
54.6540900000036,-0.00113170448457822
54.6680050000027,0.066050226916559
54.6795279999971,3.01626920490526
54.6914739999995,2.918871476606
54.7028819999993,0.0300484263570979
54.7150810000002,0.991489368083421
54.7269120000005,2.97673151321942
54.7400700000003,0.632435696432367
54.7572049999982,0.787050572049338
54.774436999999,2.03972036472987
54.7915820000023,2.88190534210298
54.808825000003,2.91051391576184
54.8252679999992,2.90762091393117
54.8428929999992,2.94169404660352
54.8605970000029,2.97608862392372
54.8769090000018,2.96258794871392
54.8953800000027,3.00630442082183
54.9133610000014,3.07541502011009
54.9311710000038,2.10979529796168
54.9490150000006,0.562039318552706
54.9657740000039,1.0638144138502
54.9824750000015,0.772264118248131
54.9995970000029,0.419639339554124
55.015748999998,0.516072733909823
55.0324329999983,0.382673205051105
55.0483540000021,1.17149837088073
55.0661169999987,0.23159422056051
55.0827129999995,0.643043369811494
55.0995909999981,0.671330498822499
55.1169570000023,0.0895156862097792
55.1331400000006,0.101409138180315
55.1526600000039,0.0274768691742793
55.1700150000006,0.0200836422736757
55.187435999997,0.00465429917676374
55.2029860000014,0.0239409780479036
55.2181429999992,0.0496565498760901
55.2356950000003,0.0483707712846808
55.2515059999973,0.0496565498760901
55.2708819999993,0.00690441171173006
55.2879739999995,-0.000488815188873559
55.3044699999988,-0.0207398280035704
55.321376000002,-0.0101321546244435
55.3371529999971,0.00433285452891141
55.3535059999973,0.013654749316629
55.3700530000031,0.0178335297387093
55.3873530000001,0.00754730100743473
55.4038420000002,0.000796963402535766
55.4219120000005,0.0162263064994477
55.4380490000024,-0.0287759441998787
55.4548460000008,-0.0352048371569254
55.471512000002,-0.0593131857458502
55.4888170000017,-0.134531233343296
55.5059120000005,0.0522281070589088
55.5245480000004,2.84301053971285
55.5429090000018,2.92947914998513
55.560314000003,2.95165883068694
55.5787960000038,2.99987552786479
55.5967559999973,2.59035504650092
55.6142700000033,2.01914790726732
55.632125,0.112981145502999
55.6521730000004,0.0416204336797819
55.6697559999973,0.0152619725558907
55.686699000001,0.00722585635958239
55.7029509999976,0.0226551994564943
55.7199780000001,0.00143985269824043
55.7355340000018,0.0258696459350176
55.7517089999989,0.0419418783276342
55.7685139999986,0.0342272067791782
55.7842950000018,0.0564068874809891
55.8004340000004,0.076657900295686
55.816800999999,0.0895156862097792
55.8324560000002,0.53632374672452
55.8482850000039,1.31004101410508
55.8645469999984,1.94457274896558
55.8815759999976,1.4157963032485
55.8982540000007,1.38525906170253
55.9144130000025,1.78449331433512
55.9309930000007,1.96610954037169
55.9475600000024,2.08825850655558
55.9637170000002,2.46692030172562
55.9795179999992,3.01337620307459
55.9969940000027,2.49520743073663
56.0132430000007,2.91565703012748
56.0309519999996,2.04004180937773
56.0477210000008,1.66234434815124
56.0637920000032,2.36984401807422
56.0813049999997,1.70766804349842
56.0990850000009,0.108480920433067
56.1157070000023,0.48810704954667
56.1328889999986,0.165698067750782
56.1506649999991,0.072800564521458
56.1678840000033,0.0621928911423311
56.1882060000002,0.021369420865085
56.2042880000025,-0.0104535992722958
56.2216330000013,0.0721576752257533
56.2386419999972,0.290740035765339
56.2557309999987,0.784800459514372
56.2732899999991,1.84910368855344
56.289549999997,1.13742523820838
56.3065319999978,1.56848251097836
56.3248409999982,2.92433603561949
56.341814000003,2.92240736773238
56.3588030000031,2.92915770533727
56.3771450000033,2.97930307040224
56.3946799999997,2.99183941166848
56.4117939999998,3.00148275110405
56.4305579999983,3.0085545333568
56.4474039999992,2.92883626068942
56.4652840000018,1.97157409938518
56.4833500000015,1.41258185676998
56.499638000004,1.45919133070856
56.5169839999974,1.33029202691978
56.5343379999995,1.30264778720448
56.5507779999971,1.01206182554597
56.5696719999984,0.877055073447991
56.586561999999,1.71956149546895
56.603313000001,0.661687159386929
56.6210279999971,1.48715701507172
56.6394780000001,2.79961551225279
56.651375,0.0734434538171627
56.6636649999991,2.83786742534721
56.6765810000002,3.00437575293472
56.6890869999975,1.63148566195741
56.7025539999977,0.0313342049485072
56.7154409999996,0.123588818882126
56.7280680000037,2.9802674043458
56.7416169999987,2.92305025702808
56.7558430000022,0.689009954454377
56.7677639999986,0.0419418783276342
56.7799170000032,1.56366084126057
56.7928819999993,2.94683716096915
56.8050040000007,0.080515236069914
56.8169930000007,0.0493351052282378
56.8295810000002,2.0159334607888
56.8473599999994,1.92817907192511
56.863800999999,1.30554078903515
56.8823999999985,0.0959445791668259
56.8994540000036,0.0911229094490409
56.9172779999971,0.0493351052282378
56.9343219999969,0.0435491015668958
56.952199000001,0.0197621976258233
56.9681569999978,0.0409775443840772
56.9854839999974,0.012690415373072
57.0022850000039,0.013654749316629
57.0178210000023,0.0332628728356212
57.0366019999981,0.00465429917676374
57.0518070000038,0.0210479762172326
57.070061999999,-0.0040247063152492
57.0869680000022,-0.00531048490665853
57.1052159999982,0.0329414281877689
57.1220900000036,0.174377073242795
57.1405260000005,2.87290489196312
57.1577430000007,2.88190534210298
57.1746359999999,2.8979775744956
57.1945600000024,3.00276852969546
57.210560999997,2.98573196335929
57.2296070000008,3.10016625799472
57.2460169999972,3.01434053701814
57.2641330000013,2.15383321471745
57.2798189999983,2.83143853239017
57.2972770000026,2.3335207728669
57.3140439999998,2.02364813233726
57.3323360000029,0.56525376503123
57.3484670000002,1.03231283836067
57.3651030000001,0.834302935283631
57.3816309999973,1.2849683315726
57.3986309999973,0.921414434851613
57.415800999999,0.497428944334388
57.4334210000038,0.0885513522662222
57.4515960000008,0.0364773193141446
57.4694769999981,0.0245838673436083
57.4852299999967,0.0294055370613933
57.5038580000028,0.067978894803673
57.5204839999974,0.000796963402535766
57.5365710000023,0.0123689707252197
57.5565649999976,1.96353798318887
57.5721520000026,0.539538193203043
57.5911309999973,2.9195143659017
57.6084060000032,2.9391224894207
57.625936999999,2.95583761110902
57.6424619999975,2.94908727350412
57.6591309999973,2.94844438420841
57.6779699999988,2.99794685997767
57.6945310000032,3.00051841716049
57.7114469999969,3.01209042448318
57.7290649999976,3.05580689659109
57.7462430000007,2.84654643083923
57.7635879999995,2.72825480042957
57.7820520000011,0.364672304771375
57.7990769999996,0.322563055902719
57.8158599999994,0.37495853350265
57.8325,0.148340056766756
57.8492320000008,0.244130561826751
57.8666799999997,0.0789080128306523
57.8835949999988,0.0702290073386393
57.9007370000035,0.0641215590294451
57.9194760000035,0.013654749316629
57.9363610000014,0.0120475260773674
57.9527529999986,0.0258696459350176
57.9679970000014,0.0380845425534062
57.9858149999976,0.0236195334000513
58.002138000004,0.0268339798785746
58.0213439999968,-0.0133466011029668
58.037060999997,-0.00627481885021552
58.053675999999,0.00272563128964975
58.0714600000009,0.176305741129909
58.0888830000013,0.956773346115369
58.1072899999991,2.72343313071178
58.1273339999989,2.99730397068197
58.1482110000029,1.31100534804864
58.165237999998,0.694153068820015
58.184199000001,0.0576926660723984
58.2025450000018,0.0290840924135409
58.2187980000004,0.0216908655129373
58.2390570000038,0.598684008407872
58.2581660000011,2.91726425336674
58.2747349999994,2.91404980688822
58.292050999999,2.93622948759003
58.3097199999988,2.96644528448815
58.3261230000034,2.95712338970043
58.343112999998,2.96612383984029
58.3605200000033,2.97576717927586
58.3784589999989,3.00887597800465
58.3969799999967,2.50710088270716
58.4158219999969,0.553038868412841
58.4362749999985,0.0062615224160254
58.455388000004,0.298133262665942
58.4782280000001,3.01241186913103
58.4980670000017,1.75781340856338
58.5175160000026,0.0583355553681031
58.5338350000009,0.209735984506551
58.5511590000018,0.772585562895983
58.5685949999988,0.848125055141281
58.5898200000003,2.89637035125634
58.6081679999977,2.94265838054707
58.6274450000003,3.01112609053962
58.6489949999973,2.57203270157333
58.6712419999987,1.28753988875542
58.6910850000009,2.94330126984278
58.7119699999988,3.04552066785982
58.7359659999982,0.515751289261971
58.7598779999986,2.9944109688513
58.7844350000024,0.431854236172512
58.8064299999997,2.86551166506251
58.8250099999979,2.94780149491271
58.8456829999983,3.14227550686337
58.8673219999969,0.141911163809709
58.8845680000037,0.414174780540634
58.905061999999,0.297168928722385
58.9314640000015,2.59646249481011
58.9523580000028,0.0332628728356212
58.9701789999977,0.00883307959884405
58.9867939999998,-0.0049890402588062
59.0003519999981,0.069907562690787
59.0135879999995,2.4569555176422
59.0278299999982,3.02398387645371
59.040310999997,2.90215635491768
59.0539600000009,-0.0149538243422285
59.0660820000023,0.0930515773361549
59.0820890000016,0.430568457581103
59.0942129999995,3.01209042448318
59.1082520000041,2.9323721518158
59.1235150000006,2.89926335308701
59.1358770000041,0.013654749316629
59.1499780000001,0.076657900295686
59.1636349999979,2.18533479020698
59.1783659999967,3.05227100546472
59.1942679999992,2.99344663490774
59.209439000003,2.96612383984029
59.2229020000026,0.701224851072766
59.2372880000025,-0.0258829423692077
59.2506230000034,0.0580141107202508
59.2669039999992,0.0618714464944787
59.2812540000007,0.481035267293919
59.2942370000035,3.00662586546969
59.3079560000002,2.92465748026734
59.3230399999991,1.36757960607065
59.3362819999978,0.0011184080503881
59.3474340000004,1.2364301897469
59.3605469999984,3.0011613064562
59.372325000003,1.65495112125063
59.3838980000019,0.0502994391717948
59.3990860000029,0.142875497753266
59.410949000001,3.02076942997519
59.4233189999983,2.87901234027231
59.4367309999988,0.0374416532577015
59.448310999997,0.473320595745463
59.4603599999994,2.99891119392123
59.4722829999998,1.66748746251687
59.484324000001,0.0409775443840772
59.4960710000023,2.61157039325917
59.5078269999996,2.92497892491519
59.5195490000024,0.00594007776817307
59.5311730000004,0.694795958115719
59.5430769999996,2.98380329547217
59.5548849999979,0.660722825443372
59.5655600000024,0.0972303577582352
59.577373999998,3.00630442082183
59.593064000003,2.9802674043458
59.6094959999993,2.96933828631882
59.6259299999997,2.96194505941821
59.6423519999981,2.94619427167345
59.6588170000017,2.94458704843419
59.675189000003,2.93430081970291
59.6922889999971,2.94105115730781
59.7090469999984,2.95005160744768
59.7257110000029,2.95198027533479
59.7426429999992,2.95615905575687
59.7584240000024,2.93430081970291
59.7759320000038,2.95583761110902
59.7920970000029,2.93847960012499
59.8104769999981,2.97512428998016
59.8284870000035,3.00566153152613
59.844013000004,2.98958929913351
59.8604640000015,2.97801729181083
59.8782609999999,2.995053858147
59.8937150000036,2.97962451505009
59.9104579999968,2.97641006857157
59.9283849999979,2.98348185082432
59.9440300000012,2.98187462758506
59.9598020000011,2.96290939336177
59.9764560000002,2.96162361477036
59.992575000003,2.92722903745016
60.0081810000017,2.62635684706038
