Tiempo (s),Voltaje (V)
0.0926159999966621,1.82629572073347
2.25477699999511,1.73031376049039
2.30944399999827,1.72193949550274
2.34301399999857,1.70873392379144
2.36062399999797,1.68779826132231
2.37839599999785,1.67684729941539
2.39549899999797,1.68683199997758
2.41193699999899,1.66879512154264
2.42877300000191,1.67008347000228
2.44642899999768,1.68135651902412
2.46540299999714,1.69230748093105
2.48478799999505,1.72451619242202
3.14085599999875,1.78603483136976
3.15911299999803,1.72161740838783
3.17958900000155,1.70035965880379
3.20078400000185,1.74867272604024
3.22353599999845,1.77347343388828
3.24973900000006,1.72902541203075
3.26959399999678,1.77894891484175
3.28705900000036,1.79215448655304
3.30698299999535,1.74674020335078
3.32809600000083,1.69295165516087
3.34945899999887,1.71807445012382
3.36991899999976,1.77637221792247
3.39078499999642,1.72419410530711
3.41228999999911,1.65655581117608
3.43636199999601,1.75930160083226
3.45704399999976,1.71227688205545
3.47750899999589,1.64173980389023
3.49981399999559,1.64850363330333
3.51842199999839,1.6208041414211
3.53798399999738,1.64850363330333
3.55728099999577,1.57796655513812
3.57714699999988,1.54994497614098
3.59681700000167,1.5541321086348
3.6196269999966,1.72290575684747
3.63905200000107,1.79698579327669
3.65727300000191,1.74706229046569
3.67820199999958,1.77025256273919
3.70389099999517,1.9006978442776
3.75127600000054,1.79762996750651
3.76829999999702,1.82629572073347
3.78492799999565,1.81115762633272
3.80336599999666,1.76348873332608
3.82078400000185,1.76187829775154
3.839375,1.73256837029476
3.85823200000078,1.67845773498993
3.8778769999966,1.717430275894
3.89579599999636,1.53867192711914
3.91549700000137,1.68103443190921
3.93345099999756,1.89747697312851
3.95223600000143,1.98154171011993
3.97121299999952,1.71936279858346
3.98906099999696,1.69134121958632
4.00894900000095,1.68328904171358
4.02597999999672,1.72193949550274
4.04291799999774,1.65236867868225
4.06023600000143,1.66654051173828
4.07904100000113,1.64882572041824
4.09487200000137,1.65945459521026
4.11394099999964,1.67008347000228
4.13636100000143,1.76284455909627
4.15652499999851,1.72483827953693
4.1776099999994,1.71356523051509
4.20289899999648,1.86301365183317
4.22075599999726,1.90810584792052
4.24200499999523,1.69295165516087
4.26604100000113,1.6874761742074
4.28734300000221,1.87332043951028
4.31042899999768,1.68361112882849
4.33587200000137,1.70100383303361
4.35611199999601,1.74770646469551
4.37870399999619,1.57538985821884
4.39715399999917,1.73901011259295
4.4158219999969,1.66879512154264
4.43555600000173,1.75253777141916
4.45886699999869,1.62789005794912
4.47917000000179,1.62595753525966
4.50305399999768,1.73417880586931
4.52441399999708,1.74963898738497
4.55019399999827,1.73901011259295
4.57366499999911,1.60824274393963
4.60838300000131,1.94224708210095
4.64273299999535,1.57088063861011
4.67156499999762,1.77766056638211
4.69347100000083,1.60759856970981
4.71264299999923,1.64689319772879
4.7337180000022,1.71517566608964
4.75439999999851,1.75865742660244
4.77677600000054,1.66654051173828
4.79953499999642,1.69939339745906
4.83156599999964,1.69456209073542
4.85313099999726,1.8240411109291
4.87648200000077,1.7406205481675
4.89734399999678,1.26811875059502
4.91780799999833,1.81985397843528
4.93704399999976,1.717430275894
4.96033999999613,1.78442439579521
4.97996899999678,1.6307888419833
5.00793899999559,1.68779826132231
5.03928499999642,1.8240411109291
5.10805099999905,1.69456209073542
5.12842199999839,1.66943929577246
5.15036999999732,1.79344283501268
5.17105099999905,1.78571274425485
5.19422399999946,1.71259896917036
5.21780200000107,1.78925570251886
5.24138499999791,1.55445419574971
5.26381199999899,1.80342753557488
5.28622800000012,1.86913330701645
5.31053199999779,1.81534475882654
5.32975299999863,1.58923960415996
5.35138199999929,1.49261346968706
5.37435300000012,1.65172450445243
5.39756599999964,1.70680140110198
5.41889099999517,1.73546715432894
5.43668299999833,1.74255307085696
5.45463899999857,1.78184769887594
5.47571499999613,1.69262956804596
5.49397999999672,1.63948519408586
5.51114999999851,1.67813564787502
5.52952699999511,1.66815094731282
5.55152600000054,1.81502267171163
5.56918999999762,1.71485357897473
5.59114099999517,1.64463858792442
5.61046700000018,1.75318194564898
5.62785899999738,1.43818074726732
5.64521999999881,1.54157071115333
5.66328099999577,1.81212388767744
5.68292199999839,1.45879432262154
5.70015699999779,1.77443969523301
5.71692199999839,1.94289125633077
5.73475800000131,1.7438414193166
5.75330399999768,1.78539065713994
5.7705549999997,1.74802855181042
5.78781899999827,1.75930160083226
5.80738700000197,1.66782886019791
5.82429800000042,1.67974608344957
5.84261800000071,1.67974608344957
5.85747500000149,1.69488417785033
5.87206300000101,1.77154091119883
5.88632699999958,1.75994577506208
5.89916600000113,1.73192419606494
5.91043100000173,1.64431650080951
5.92243800000101,1.73095793472021
5.93531000000238,1.75575864256825
5.94883900000155,1.84272216359386
5.96117000000179,1.61178570220363
5.97310799999535,1.7306358476053
5.9850719999969,1.77476178234792
5.9975700000003,1.83466998572112
6.01039499999583,1.56218428650755
6.02319399999827,1.73965428682277
6.03621700000018,1.64624902349897
6.04829299999774,1.69359582939069
6.06240999999642,1.81083553921781
6.07489999999851,1.49261346968706
6.08765999999642,1.64560484926915
6.1193069999963,1.79473118347232
6.13144299999624,1.66203129212954
6.14312999999523,1.67233807980665
6.15634499999881,1.68103443190921
6.16936899999529,1.78571274425485
6.18049300000072,1.62499127391493
6.19261400000006,1.65623372406117
6.20532899999619,1.73095793472021
6.21782999999821,1.82371902381419
6.22892300000042,1.6407735425455
6.24154699999839,1.66847303442773
6.25402499999851,1.75640281679807
6.26655200000107,1.77959308907157
6.27913499999791,1.67008347000228
6.29181700000167,1.74641811623587
6.30470099999756,1.70937809802126
6.31772599999607,1.83305955014657
6.32957899999619,1.6807123447943
6.3433069999963,2.13807604796602
6.35588300000131,1.57184689995483
6.36840100000054,1.93709368826239
6.38110199999809,1.63336553890258
6.39435000000149,1.53094183636131
6.40808100000024,1.73707758990349
6.41995199999958,1.78474648291012
6.43129299999774,1.70132592014852
6.44366899999976,1.74867272604024
6.45603000000119,1.64238397812005
6.46795199999958,1.76509916890063
6.47956399999559,1.66106503078481
6.49290999999642,1.66009876944008
6.50635099999607,1.70583513975726
6.51893699999899,1.73256837029476
6.53023600000143,1.71807445012382
6.54238499999791,1.64496067503933
6.5563769999966,1.68715408709249
6.56931799999624,1.7541482069937
6.58282999999821,1.77894891484175
6.59614699999988,1.6340097131324
6.6084469999969,1.69681670053978
6.62093599999696,1.74094263528241
6.63354899999499,1.76348873332608
6.64580799999833,1.78088143753121
6.65833500000089,1.5673376803461
6.67087600000203,1.78313604733557
6.68449599999934,1.73417880586931
6.69692099999636,1.75382611987879
6.70982400000095,1.68039025767939
6.7226969999969,1.73578924144385
6.73507800000161,1.70776766244671
6.74773600000143,1.81212388767744
6.7609849999994,1.50871782543254
6.77408299999684,1.63948519408586
6.78689400000125,1.98379631992429
6.80094600000232,1.71485357897473
6.81321700000018,1.7973078803916
6.8321269999966,1.66267546635936
6.85097199999541,1.78539065713994
6.86856700000167,1.80600423249416
6.88835400000215,1.71839653723873
6.90859899999946,1.67781356076011
6.92799300000071,1.67427060249611
6.94740599999577,1.69713878765469
6.99287099999934,1.65140241733752
7.01096400000155,1.65913250809535
7.02997199999541,1.71936279858346
7.04902399999648,1.78474648291012
7.06725,1.73868802547804
7.08512999999523,1.93516116557294
7.10392099999636,1.88105053026811
7.12302300000191,1.66042085655499
7.14121999999881,1.69810504899942
7.15984799999744,1.73997637393768
7.17745199999958,1.89747697312851
7.19452600000054,1.61500657335273
7.21241499999911,1.72966958626057
7.22948099999875,1.69456209073542
7.24881599999964,1.73160210895003
7.26818699999899,1.77443969523301
7.28797800000012,1.72419410530711
7.30608100000024,1.72838123780093
7.32340100000054,1.69037495824159
7.34184699999541,1.67201599269174
7.35993800000101,1.64624902349897
7.37857599999756,1.67684729941539
7.39895499999821,1.62627962237457
7.41713799999654,2.02019216390909
7.43625699999928,1.79022196386359
7.46034600000083,1.63272136467276
7.47839099999517,1.65687789829099
7.49754999999702,1.83756876975531
7.51517000000179,1.43979118284187
7.53259799999744,1.71002227225108
7.55078000000119,1.77250717254356
7.56960599999875,1.77250717254356
7.58928899999708,1.72934749914566
7.60838799999654,1.65494537560153
7.62677799999714,1.65945459521026
7.65187399999797,1.71388731763
7.66958999999613,1.78184769887594
7.68703700000048,1.73868802547804
7.70596499999613,1.7039026170678
7.72481199999899,1.69101913247141
7.74496299999952,1.67233807980665
7.76278000000119,1.83531415995094
7.78179800000042,1.66621842462337
7.79982100000232,1.78603483136976
7.81796000000089,1.82275276246946
7.83701999999583,1.64270606523496
7.85767099999636,1.58440829743631
7.87696400000155,1.62821214506403
7.89533500000089,1.77766056638211
7.91378899999708,1.6771693865303
7.93344200000167,1.81180180056253
7.95293699999899,1.7373996770184
7.9730569999963,1.64302815234987
7.99058399999887,1.6707276442321
8.01005099999905,1.66815094731282
8.05698099999875,1.64850363330333
8.07478499999642,1.74802855181042
8.09281399999559,1.54801245345152
8.11117799999565,1.62789005794912
8.12940900000185,1.81759936863091
8.1471950000003,1.59439299799851
8.16542199999839,1.80858092941344
8.18427600000054,1.49776686352561
8.20233599999547,1.87686339777429
8.2216969999969,1.90166410562233
8.23951099999994,1.3908339413756
8.25922800000012,1.63916310697095
8.27705099999905,1.6208041414211
8.29627300000191,1.72644871511147
8.31584600000083,1.73128002183512
8.33579999999702,1.72000697281328
8.35655900000036,1.67008347000228
8.37528799999505,1.60663230836508
8.395,1.7106664464809
8.41270899999887,1.67588103807066
8.43254699999839,1.78828944117413
8.45075100000203,1.60437769856071
8.46845799999684,1.72226158261765
8.48578099999577,1.80632631960907
8.5045150000006,1.35476018450572
8.52253000000119,1.73707758990349
8.54033999999613,1.73611132855876
8.56064800000191,1.56991437726538
8.57909600000083,1.69295165516087
8.60095399999619,1.79827414173633
8.61895199999958,1.74545185489114
8.63690199999511,1.72322784396238
8.65735700000078,1.63884101985605
8.68598299999535,1.77089673696901
8.70745499999821,1.70325844283798
8.73199499999732,1.76445499467081
8.7538769999966,1.64045145543059
8.77848799999803,1.47940789797576
8.79997800000012,1.60308935010107
8.82300699999928,1.50002147332998
8.84329999999702,1.77669430503738
8.86774399999529,1.78957778963377
8.89119099999964,1.66750677308301
8.91557499999553,1.7306358476053
8.94939800000191,1.75511446833843
9.00738700000197,1.68876452266704
9.0225869999975,1.6340097131324
9.04387299999595,1.6671846859681
9.06529299999774,1.65558954983135
9.15158799999952,1.79666370616178
9.18042199999839,1.70519096552744
9.20234099999815,1.79279866078286
9.23092499999702,1.77830474061193
9.25501099999994,1.73901011259295
9.27746599999815,1.69005287112668
9.30013799999654,1.78313604733557
9.31798099999875,1.75994577506208
9.36214999999851,1.71259896917036
9.37981300000101,1.71936279858346
9.39710599999875,1.74512976777623
9.41589699999988,1.77347343388828
9.4316099999994,1.78635691848467
9.4468599999994,1.82951659188257
9.46177199999988,1.65591163694626
9.47599000000209,1.67588103807066
9.4909680000022,1.59890221760725
9.50597599999607,1.60373352433089
9.52057499999553,1.81244597479235
9.53378000000119,1.73353463163949
9.54772299999744,1.68135651902412
9.56165999999642,1.97413370647701
9.57731199999899,1.62015996719128
9.5924069999978,1.59954639183707
9.60664899999648,1.69166330670123
9.62039400000125,1.73933219970786
9.63466899999976,1.74674020335078
9.64871499999613,1.76026786217699
9.66251399999857,1.71839653723873
9.67692300000042,1.68039025767939
9.69143999999762,1.65816624675062
9.70974899999797,1.68908660978195
9.72971099999547,1.71710818877909
9.74984899999946,1.75930160083226
9.76871599999815,1.73353463163949
9.78550100000203,1.63175510332803
9.80472500000149,1.3641007108381
9.82314299999923,1.62692379660439
9.83940900000185,1.47972998509067
9.85479199999571,1.7841023086803
9.87299000000209,1.56347263496718
9.88955600000173,1.77347343388828
9.91310599999875,1.72612662799656
9.94367300000042,1.67813564787502
9.97230600000173,1.67491477672593
10.0116909999996,1.64818154618843
10.0396400000006,1.67104973134701
10.0658680000007,1.76187829775154
10.0955710000023,1.77089673696901
10.1231550000012,1.53287435905077
10.1488980000019,1.71259896917036
10.1725520000011,1.34928470355226
10.1957360000014,1.59020586550469
10.223799999997,1.6671846859681
10.2517449999973,1.77282925965847
10.279748999998,1.70164800726343
10.3291559999958,1.71292105628527
10.3688460000008,1.85335103838588
10.4008299999982,1.74867272604024
10.4324209999964,1.66460798904882
10.4586920000017,1.62853423217894
10.4888170000017,1.61532866046764
10.5249719999954,1.7805593504163
10.5513269999996,1.75897951371735
10.6202769999951,1.71163270782563
10.6540719999969,1.71195479494054
10.6825759999976,1.77830474061193
10.7111960000023,1.66493007616373
10.7416929999962,1.73160210895003
10.7681730000004,1.73514506721403
10.7900909999982,1.51902461310965
10.8110989999995,1.83789085687022
10.830173999995,1.75382611987879
10.8467669999972,1.72161740838783
10.8639719999954,1.77701639215229
10.883111999996,1.74641811623587
10.8983100000024,1.77669430503738
10.9116649999991,1.72097323415801
10.927762000002,1.67233807980665
10.9420939999968,1.67652521230048
10.9598969999999,1.67620312518557
10.9776449999958,1.70841183667653
10.9966700000018,1.74770646469551
11.0162829999998,1.7206511470431
11.0520979999974,1.74158680951223
11.0909909999967,1.64367232657969
11.1100230000019,1.54382532095769
11.1304069999978,1.68200069325394
11.1531519999951,1.65108033022261
11.1754029999971,1.66203129212954
11.1979129999951,1.82243067535455
11.2178709999993,1.76703169159009
11.234938000001,1.67008347000228
11.2477030000016,1.78571274425485
11.2613949999958,1.69649461342487
11.2761829999983,1.70680140110198
11.3044719999954,1.71324314340018
11.3252580000013,1.67330434115138
11.345612999998,1.72516036665183
11.3660670000017,1.76445499467081
11.3902719999999,1.67813564787502
11.4099230000004,1.69585043919506
11.4352950000018,1.77218508542865
11.4557119999975,1.86333573894808
11.4788790000007,1.80439379691961
11.5132980000004,1.79956249019597
11.5340780000016,1.80213918711524
11.5528039999977,1.75285985853407
11.5730820000023,1.54994497614098
11.5968189999983,1.73031376049039
11.6337280000001,1.73546715432894
11.6658409999982,1.69681670053978
11.698425999999,1.69327374227578
11.7335949999988,1.77250717254356
11.7669329999983,1.80922510364326
11.7954900000021,1.64496067503933
11.8285019999966,1.57635611956357
11.8587709999979,1.60663230836508
11.8938959999979,1.58762916858541
11.9231199999973,1.67588103807066
11.9735450000018,1.6771693865303
12.1007409999967,1.75479238122352
12.1443350000009,1.72644871511147
12.1775,1.78539065713994
12.2191779999956,1.76703169159009
12.2708989999965,1.70035965880379
12.3074189999998,1.64528276215424
12.3323720000014,1.75543655545334
12.3553189999983,1.68940869689686
12.4058709999993,1.71356523051509
12.4234099999964,1.70229218149325
12.4404450000003,1.59793595626252
12.4592580000013,1.83305955014657
12.4776449999958,1.55123332460062
12.5002589999959,1.70132592014852
12.5181950000003,1.79859622885124
12.5370749999955,1.62627962237457
12.5567919999957,1.81953189132037
12.5730930000022,1.7006817459187
12.5908509999961,1.717430275894
12.6089519999996,1.73707758990349
12.629060999997,1.79601953193196
12.6504059999958,1.80503797114943
12.6707709999979,1.71936279858346
12.6867910000011,1.72097323415801
12.7066419999972,1.68650991286268
12.7248449999988,1.71002227225108
12.7434659999982,1.7406205481675
12.7635960000008,1.83756876975531
12.7817829999998,1.86462408740772
12.7984759999961,1.69456209073542
12.8149659999982,1.71195479494054
12.8301000000015,1.53255227193586
12.8459090000018,1.65333494002698
12.8629729999974,1.83016076611239
12.8801590000018,1.74963898738497
12.8976089999974,1.76864212716464
12.9133769999966,1.78313604733557
12.9288259999976,1.67330434115138
12.9454439999983,1.75511446833843
12.9624799999967,1.73160210895003
12.983137000002,1.73450089298422
13.0058350000009,1.68457739017322
13.0257809999958,1.66009876944008
13.0438489999995,1.70905601090635
13.0626169999987,1.75447029410861
13.0823139999956,1.79022196386359
13.1072140000015,1.57667820667848
13.1262639999986,1.60115682741161
13.1442939999998,1.71098853359581
13.160449000001,1.59471508511342
13.1782859999985,1.75157151007443
13.2430209999979,1.63368762601749
13.271375,1.69617252630997
13.2995979999974,1.73031376049039
13.3262400000021,1.66621842462337
13.3651000000015,1.77443969523301
13.399498999998,1.75704699102789
13.4290199999958,1.76026786217699
13.4647950000018,1.77830474061193
13.4989129999951,1.75543655545334
13.5336649999991,1.62885631929385
13.5839680000022,1.78378022156539
13.619049999997,1.77089673696901
13.648236999996,1.72419410530711
13.6786669999957,1.73353463163949
13.7166199999973,1.75253777141916
13.7381159999967,1.66686259885319
13.7665719999969,1.77798265349702
13.7882639999986,1.67233807980665
13.8107409999967,1.71034435936599
13.8318269999996,1.76123412352172
13.8549719999954,1.66589633750846
13.8760799999982,1.68586573863286
13.8993729999959,1.77862682772684
13.9221019999981,1.60663230836508
13.9420459999964,1.66654051173828
13.9608069999963,1.61854953161674
13.9794329999983,1.57925490359776
14.0084570000023,1.75801325237262
14.0286539999992,1.76767586581991
14.0489169999957,1.78700109271449
14.0653299999982,1.80793675518362
14.0876030000001,1.663963814819
14.1059289999977,1.64818154618843
14.1236550000012,1.65204659156734
14.1435150000006,1.70422470418271
14.161125,1.72902541203075
14.183362999998,1.74577394200605
14.2023919999972,1.69424000362051
14.2222439999953,1.67427060249611
14.2405419999957,1.6571999854059
14.2593799999952,1.83660250841058
14.2795890000016,1.71420940474491
14.299813000001,1.70937809802126
14.3196189999953,1.60147891452652
14.3408310000002,1.63111092909821
14.3610579999983,1.75124942295952
14.3802290000021,1.73836593836313
14.4027070000023,1.7039026170678
14.4241679999977,1.64431650080951
14.4455759999976,1.73933219970786
14.4631049999967,1.76284455909627
14.4803500000015,1.75640281679807
14.500487999998,1.73868802547804
14.5199209999964,1.67652521230048
14.5388409999982,1.6739485153812
14.5559219999984,1.67523686384084
14.6074319999963,1.71807445012382
14.626938000001,1.5673376803461
14.6470260000005,1.67169390557683
14.6662650000006,1.67491477672593
14.6899649999961,1.68973078401177
14.713362999998,1.78828944117413
14.740936999999,1.68940869689686
14.7659539999962,1.77637221792247
14.7885969999954,1.61822744450183
14.8177910000011,1.74641811623587
14.8454450000003,1.75769116525771
14.8729539999962,1.64528276215424
14.9044970000014,1.72354993107729
14.9327910000011,1.65301285291207
14.959125,1.71034435936599
14.9849710000008,1.71775236300891
15.0090469999984,1.52031296156929
15.03225,1.86140321625862
15.0626099999994,1.4839171175845
15.0892400000021,1.6939179165056
15.115300999999,1.79247657366795
15.1406559999958,1.72354993107729
15.1678379999995,1.80439379691961
15.1890349999964,1.65333494002698
15.2084799999967,1.69617252630997
15.2277629999965,1.74802855181042
15.2457430000007,1.78635691848467
15.2644409999996,1.79086613809341
15.283310999997,1.73417880586931
15.3012210000008,1.79924040308106
15.3172349999994,1.68618782574777
15.3347159999982,1.6072764825949
15.350173999995,1.4108033425
15.365813000001,1.62982258063857
15.385012000002,1.45782806127681
15.4027719999999,1.75382611987879
15.4241519999951,1.80954719075817
15.4453299999982,1.67169390557683
15.4652690000013,1.71517566608964
15.483061999999,1.54446949518751
15.5013859999999,1.65913250809535
15.5199560000002,1.61178570220363
15.5374839999974,1.58022116494249
15.5536629999951,1.57571194533375
15.5675139999986,1.69874922322924
15.5832959999964,1.74802855181042
15.5994549999982,1.74641811623587
15.6155,1.79924040308106
15.6319699999988,1.78861152828904
15.6479329999983,1.80374962268979
15.6612439999953,1.78281396022066
15.67425,1.73707758990349
15.6887959999964,1.71614192743436
15.7041169999987,1.68554365151795
15.7195899999961,1.64914780753315
15.734498999998,1.76348873332608
15.7458610000014,1.85624982242007
15.757137000002,1.58634082012577
15.7711070000008,1.82629572073347
15.7853420000002,1.99925650143996
15.7967079999968,1.62982258063857
15.8110450000018,1.79279866078286
15.8647309999987,1.71549775320455
15.8849389999956,1.69842713611433
15.9072259999961,1.78700109271449
15.9359409999996,1.71646401454927
15.9673599999994,1.75962368794717
15.9952760000005,1.77669430503738
16.0259289999977,1.73675550278858
16.0576489999965,1.70519096552744
16.0887089999989,1.67588103807066
16.1180590000004,1.70583513975726
16.1442840000018,1.63626432293677
16.1686599999964,1.7274149764562
16.1915729999989,1.74899481315515
16.2161539999992,1.70873392379144
16.2423500000015,1.69681670053978
16.2712749999985,1.61500657335273
16.2928369999975,1.72966958626057
16.3178489999995,1.67942399633466
16.3457529999986,1.77379552100319
16.3697400000021,1.70293635572307
16.3908100000024,1.72999167337548
16.4042030000016,1.64012936831568
16.4186770000011,1.63851893274114
16.4321629999951,1.7438414193166
16.4438989999965,1.75028316161479
16.4557030000016,1.66042085655499
16.4681689999998,1.70197009437834
16.4800890000015,1.78088143753121
16.4942400000021,1.74609602912096
16.506688000001,1.67877982210484
16.5196459999979,1.70229218149325
16.5329549999982,1.88813644679612
16.5451059999987,1.61049735374399
16.5584050000012,1.82822824342293
16.5713879999965,1.42787395959022
16.5835710000023,2.02276886082836
16.5959710000008,1.5241780069482
16.6091400000006,1.84562094762805
16.6217299999967,2.01503877007053
16.6340429999977,1.48681590161868
16.6449019999951,1.67974608344957
16.6579689999968,1.69037495824159
16.6707320000008,1.77025256273919
16.6821489999965,1.69907131034415
16.6939160000011,1.79312074789777
16.7071939999983,1.75833533948753
16.719736999996,1.65365702714189
16.7336529999971,1.72516036665183
16.7438889999986,1.7039026170678
16.7558090000004,1.68489947728813
16.7688139999956,1.65333494002698
16.7804299999997,1.75962368794717
16.7918579999954,1.67523686384084
16.8033479999974,1.63787475851132
16.8181169999987,1.72161740838783
16.8302180000022,1.73482298009912
16.8417259999961,1.7473843775806
16.852611999996,1.63304345178767
16.8644930000007,1.73804385124822
16.8776220000014,1.78184769887594
16.9189050000012,1.6539791142568
16.9422390000001,1.67620312518557
16.9628339999989,1.82307484958437
16.9846810000017,1.81920980420546
17.0007060000002,1.36796575621702
17.0168079999983,1.81309014902217
17.0341309999973,1.6571999854059
17.0513200000003,1.84980808012187
17.0692100000009,1.73353463163949
17.0866089999974,1.6108194408589
17.1030340000018,1.76284455909627
17.1188469999954,1.67104973134701
17.134550999999,1.69617252630997
17.1526319999993,1.66493007616373
17.1678320000023,1.68940869689686
17.1842299999967,1.67942399633466
17.2023219999969,1.66654051173828
17.2186079999953,1.65816624675062
17.2345059999973,1.69295165516087
17.2494279999956,1.72805915068602
17.2649219999984,1.76477708178572
17.2802919999957,1.75092733584461
17.295561999999,1.81373432325199
17.3129389999956,1.80890301652835
17.3299219999984,1.68973078401177
17.3472199999988,2.06625062134117
17.3633879999965,1.70583513975726
17.3798090000004,1.55026706325589
17.3963689999953,1.38632472176687
17.4151309999973,1.76703169159009
17.4315820000023,1.51612582907546
17.4502549999952,1.82210858823964
17.4698189999983,1.73578924144385
17.486387000002,1.66879512154264
17.503424999997,1.66106503078481
17.5208159999996,1.66009876944008
17.538737999998,1.65977668232517
17.5558959999979,1.64335023946478
17.5735969999954,1.70325844283798
17.5921519999951,1.74480768066132
17.6081049999967,1.63433180024731
17.6243489999995,1.70422470418271
17.6422730000019,1.65526746271644
17.6613969999999,1.90810584792052
17.6872779999971,1.63433180024731
17.7050989999995,1.45009797051898
17.7163460000008,2.04080573926331
17.727873999998,1.51290495792637
17.7405879999995,1.66589633750846
17.7532290000021,1.66203129212954
17.7631579999998,1.58118742628722
17.7779560000002,1.80632631960907
17.7905679999962,1.59181630107923
17.803173999995,1.74577394200605
17.8137479999959,1.61951579296147
17.8247769999951,1.85013016723678
17.8399099999964,1.64141771677532
17.8521489999965,1.67491477672593
17.8682789999992,1.72097323415801
17.9045059999973,1.6707276442321
17.9204579999968,1.67298225403647
17.9367910000011,1.66557425039355
17.9472459999993,1.75897951371735
17.9612100000009,1.81824354286073
17.9722219999954,1.68650991286268
17.9834299999997,1.71163270782563
17.9937659999952,1.82693989496329
18.0052980000004,1.6407735425455
18.0169619999975,1.84111172801931
18.0304959999993,1.54704619210679
18.0431679999977,1.77089673696901
18.0559069999978,1.82500737227383
18.0672479999959,1.61500657335273
18.0803350000009,1.75769116525771
18.0925700000003,1.50678530274308
18.105112999998,2.01987007679418
18.116862999998,1.6372305842815
18.1272699999958,1.75543655545334
18.1390480000004,1.72258366973256
18.1520869999975,1.65784415963572
18.1629820000008,1.75318194564898
18.1735199999958,1.83853503110004
18.1858769999966,1.55509836997953
18.1970109999999,1.73578924144385
18.2082320000008,1.73321254452458
18.2244799999967,1.73321254452458
18.2422629999965,1.76799795293482
18.2598189999983,1.75608072968316
18.2766550000012,1.717430275894
18.2952749999985,1.77154091119883
18.3120349999964,1.76445499467081
18.3301189999953,1.70905601090635
18.3505719999969,1.71807445012382
18.3687210000008,1.71710818877909
18.3882400000021,1.68039025767939
18.4074099999964,1.49808895064052
18.4258769999966,1.80181710000033
18.4439319999963,2.08879671938485
18.4639279999956,1.71517566608964
18.5388420000002,1.59213838819414
18.7567180000022,1.69681670053978
18.8405099999979,1.69166330670123
18.8944799999967,1.70325844283798
18.9432079999968,1.7973078803916
18.9742699999958,1.71002227225108
19.0029209999964,1.66428590193391
19.023675999999,1.68135651902412
19.0491590000018,1.71549775320455
19.0690329999998,1.663963814819
19.0936440000013,1.76220038486645
19.2440419999957,1.66815094731282
19.2882849999964,1.67974608344957
19.3645549999997,1.72354993107729
19.4110099999979,1.73868802547804
19.4395700000003,1.64689319772879
19.4985179999992,1.7873231798294
19.5444420000017,1.87203209105064
19.5692449999973,1.60824274393963
19.5887650000006,1.69907131034415
19.609125,1.82339693669928
19.6344219999984,1.67781356076011
19.6689099999964,1.68200069325394
19.7021330000013,1.66493007616373
19.7368460000008,1.65591163694626
19.7662030000016,1.70615722687216
19.7965649999976,1.79634161904687
19.8248219999969,1.73675550278858
19.8550059999973,1.41338003941928
19.8863849999979,1.8907131437154
19.9169820000008,1.79505327058723
19.9463069999963,1.84497677339823
19.9740879999995,1.61500657335273
20.0068489999995,1.72580454088165
20.037686999999,1.6874761742074
20.0619129999951,1.74190889662714
20.0846629999951,1.72805915068602
20.1028299999982,1.65462328848662
20.1210279999971,1.66428590193391
20.1399589999989,1.73836593836313
20.1605639999956,1.76252247198136
20.1933479999974,1.77766056638211
20.2142159999982,1.78893361540395
20.235813000001,1.77218508542865
20.2549680000022,1.60985317951418
20.3155969999954,1.93934829806676
20.3325029999986,1.89103523083031
20.3517449999973,1.64657111061388
20.3702529999986,1.66364172770409
20.3854600000009,1.6607429436699
20.4040890000015,1.68039025767939
20.4204069999978,1.63819684562623
20.4375769999996,1.6906970453565
20.4570969999954,1.71517566608964
20.4776099999994,1.72516036665183
20.4977009999976,1.72580454088165
20.5202049999982,1.66621842462337
20.5407019999996,1.64689319772879
20.559313000001,1.73965428682277
20.5759759999961,1.71356523051509
20.5924200000018,1.90842793503543
20.6112140000015,1.95706308938679
20.6296000000015,1.92517646501074
20.6467019999996,1.81115762633272
20.6649640000016,1.67652521230048
20.6810930000022,1.38213758927304
20.7014189999998,1.52450009406311
20.7206979999989,1.54028236269369
20.7369640000015,1.6974608747696
20.7553100000024,1.66170920501463
20.772873999998,1.73482298009912
20.7903329999968,1.72999167337548
20.8060319999978,1.72709288934129
20.8221519999951,1.68650991286268
20.837824000001,1.64882572041824
20.8506049999967,1.68232278036885
20.8624420000017,1.76026786217699
20.8756099999994,1.71388731763
20.8887199999988,1.72226158261765
20.9033359999955,1.67684729941539
20.9165719999969,1.73611132855876
20.9299129999951,1.69166330670123
20.9450700000003,1.76348873332608
20.9652589999959,1.54801245345152
20.9819169999957,1.52256757137366
21.0003359999955,1.53480688174022
21.0193799999952,1.41885552037274
21.0410989999995,1.64850363330333
21.0619670000002,1.46426980357501
21.0842439999953,1.57989907782758
21.1055239999965,1.69005287112668
21.1250159999952,1.72612662799656
21.1466309999973,1.72709288934129
21.1720890000015,1.68715408709249
21.1951140000001,1.79891831596615
21.2197760000005,1.62499127391493
21.2436599999964,1.78152561176103
21.265548999995,1.70680140110198
21.2834069999978,1.62112622853601
21.3024860000014,1.66525216327864
21.3220179999992,1.407260384236
21.3410399999991,1.55091123748571
21.3606700000018,1.67137181846192
21.383199000001,1.47135572010302
21.4038650000021,1.56572724477155
21.4234050000012,1.79247657366795
21.4884949999973,1.67201599269174
21.5057939999998,1.70229218149325
21.5230780000016,1.72644871511147
21.5406079999954,1.68554365151795
21.5579310000017,1.73836593836313
21.5769710000008,1.76284455909627
21.5990129999965,1.70293635572307
21.6186400000006,1.68489947728813
21.6385960000008,1.61146361508872
21.6562269999981,1.60566604702035
21.6674289999977,1.73546715432894
21.6768839999959,2.11102073031361
21.6899279999956,1.64689319772879
21.703501000002,1.38020506658358
21.7147589999959,1.82082023978001
21.7267280000001,1.66815094731282
21.7392849999964,1.77862682772684
21.751626000002,1.66879512154264
21.7648259999976,1.72032905992819
21.7760399999991,1.82758406919311
21.7879959999993,1.65269076579716
21.8014570000023,1.67910190921975
21.813612999998,1.71453149185982
21.8274279999956,1.78539065713994
21.8405179999992,1.68328904171358
21.8524139999971,1.66589633750846
21.8643720000014,1.75447029410861
21.876012000002,1.74190889662714
21.8904719999954,1.73256837029476
21.9028799999952,1.6439944136946
21.9146689999998,1.6906970453565
21.9294839999974,1.74223098374205
21.9427549999952,1.75994577506208
21.9552809999958,1.69842713611433
21.9694039999992,1.66525216327864
21.9814799999967,1.69649461342487
21.9923640000001,1.62434709968511
22.0044420000017,2.02083633813891
22.0161319999993,1.36184610103373
22.0281889999956,1.88201679161284
22.0432699999958,2.12970178297837
22.0564509999976,1.58634082012577
22.0694010000005,1.33994417721988
22.0831599999964,1.67459268961102
22.0954059999958,1.72838123780093
22.1088189999983,1.74448559354641
22.1214759999961,1.71807445012382
22.1345059999973,1.68135651902412
22.2054120000005,1.64335023946478
22.2234680000022,1.71710818877909
22.2418699999973,1.72354993107729
22.2591469999999,1.77443969523301
22.2772870000005,1.7705746498541
22.2946649999991,1.75704699102789
22.3124420000017,1.77154091119883
22.3294979999959,1.51612582907546
22.3486539999992,1.7705746498541
22.3658449999988,1.67491477672593
22.3831030000001,1.70583513975726
22.4010139999986,1.85174060281133
22.4200419999957,1.6771693865303
22.4375289999992,1.89361192774959
22.4605269999951,1.92002307117218
22.4805399999991,1.81276806190726
22.4967070000023,1.67233807980665
22.5134680000022,1.8005287515407
22.5326529999971,1.67652521230048
22.5512009999976,1.66911720865755
22.5689499999955,1.6739485153812
22.5860190000013,1.60019056606689
22.6066000000015,1.74706229046569
22.6250450000018,1.7541482069937
22.6450300000012,1.69005287112668
22.6638549999967,1.75640281679807
22.6833369999975,1.72934749914566
22.701887000002,1.83628042129567
22.7202569999993,1.50356443159399
22.7373680000007,1.7274149764562
22.7549979999959,1.57925490359776
22.7726379999965,1.51419330638601
22.7924399999976,1.60341143721598
22.8098509999961,1.84368842493859
22.8283159999996,1.76799795293482
22.8456669999957,1.81276806190726
22.8634930000007,1.74029846105259
22.876637000002,1.80310544845997
22.8888589999974,1.68522156440304
22.9022159999982,1.66428590193391
22.916425999999,1.70164800726343
22.9291709999964,1.72870332491584
22.9418969999999,1.73321254452458
22.9550539999977,1.69520626496524
22.9696599999964,1.67877982210484
22.9834460000023,1.68103443190921
22.9955219999999,1.73997637393768
23.0064719999954,1.71420940474491
23.0193940000013,1.69134121958632
23.0767629999965,1.15635452172137
23.0890759999976,2.06753896980081
23.1009739999995,1.27198379597394
23.1118940000013,2.0540113109746
23.125125,1.60147891452652
23.1390269999951,1.63046675486839
23.1528940000013,1.80246127423015
23.1658420000002,1.70486887841253
23.1809600000009,1.79666370616178
23.1931349999979,1.78539065713994
23.2075399999991,1.72644871511147
23.2232439999953,1.68618782574777
23.237811999999,1.70293635572307
23.250924999997,1.65108033022261
23.2634979999959,1.78828944117413
23.2781299999952,1.72226158261765
23.2961920000017,1.7373996770184
23.3158799999952,1.70100383303361
23.3354979999959,1.6439944136946
23.3553650000021,1.71904071146855
23.3786469999999,1.76574334313045
23.4014829999954,1.47038945875829
23.4252329999954,1.72870332491584
23.4474849999994,1.89328984063468
23.4713210000023,2.04950209136587
23.4913940000013,1.98605092972866
23.5117739999965,1.74931690027006
23.5358049999997,1.70035965880379
23.5565309999958,1.73482298009912
23.5777109999955,1.70454679129762
23.6023439999968,1.71420940474491
23.6242229999974,1.73643341567367
23.6427360000014,1.79473118347232
23.6598540000021,1.75253777141916
23.6789069999978,1.75833533948753
23.696423999995,1.72934749914566
23.7152210000008,1.71388731763
23.7325370000005,1.8507743414666
23.749435999997,1.67201599269174
23.7683729999959,1.37311915005557
23.7872730000019,1.36667740775738
23.8071950000003,1.74287515797187
23.8227609999999,1.78442439579521
23.8355169999972,1.47425450413721
23.847876000002,1.77959308907157
23.8621779999956,1.70422470418271
23.8756590000018,1.78571274425485
23.8884090000018,1.72966958626057
23.9024860000014,1.65687789829099
23.9159450000003,1.71324314340018
23.928501000002,1.73128002183512
23.9391389999986,1.73289045740967
23.9907699999958,1.69907131034415
24.0021449999958,1.66525216327864
24.0147769999951,1.69874922322924
24.027186999999,1.76799795293482
24.0400219999999,1.73224628317985
24.053185999997,1.6739485153812
24.0657100000009,1.72773706357111
24.0778959999979,1.88298305295757
24.0904200000018,1.47940789797576
24.1040230000019,1.62853423217894
24.1169919999987,1.76670960447518
24.1300139999986,1.90713958657579
24.1431840000004,1.50002147332998
24.1598640000001,1.45106423186371
24.1828060000017,1.75930160083226
24.2015780000016,1.60019056606689
24.2206319999993,1.71871862435364
24.2383489999995,1.68650991286268
24.2570450000018,1.717430275894
24.2752709999979,1.73804385124822
24.2944829999953,1.81566684594145
24.3123179999962,1.71163270782563
24.3302229999974,1.76670960447518
24.3484099999964,1.71614192743436
24.3744299999997,1.7573690781428
24.3924479999989,1.75640281679807
24.411699000001,1.77218508542865
24.4290029999986,1.63755267139641
24.446375,1.78120352464612
24.4636379999965,1.92871942327474
24.4832210000008,2.0372627809993
24.5013090000004,1.86333573894808
24.519111999996,1.58569664589595
24.5375040000007,1.66621842462337
24.5543819999993,1.73997637393768
24.5734919999987,1.71614192743436
24.5926459999979,1.7841023086803
24.6124059999958,1.75865742660244
24.6327070000023,1.73095793472021
24.6511140000001,1.69005287112668
24.6691279999986,1.67233807980665
24.6818659999967,1.73417880586931
24.6940649999976,1.7741176081181
24.7078610000014,1.73160210895003
24.7213179999962,1.70358052995289
24.7344340000004,1.68973078401177
24.7464829999954,1.67555895095575
24.7593339999989,1.85592773530516
24.773001000002,1.55670880555408
24.822561999999,1.74674020335078
24.8352760000005,1.57249107418465
24.8485780000016,1.42143221729202
24.8610969999954,1.83273746303166
24.8737519999966,1.68167860613903
24.8945729999989,1.73643341567367
24.9117039999962,1.78088143753121
24.9270749999955,1.81695519440109
24.941935999997,1.69649461342487
24.9573399999961,1.7873231798294
24.9699589999989,1.57538985821884
24.9872809999958,1.73031376049039
25.005949000001,1.6939179165056
25.0288879999965,1.75930160083226
25.0503249999955,1.66911720865755
25.073123999998,1.71581984031945
25.095548999995,1.74835063892533
25.1214329999983,1.66911720865755
25.1445179999992,1.58150951340212
25.1654189999998,1.57861072936794
25.1852039999962,1.85818234510953
25.2050930000022,1.77637221792247
25.2241019999981,1.65011406887788
25.2438060000017,1.66750677308301
25.2629329999983,1.74029846105259
25.2834589999989,1.6939179165056
25.3033449999988,1.64946989464806
25.3256719999984,1.70647931398707
25.3475879999995,1.76864212716464
25.3727229999974,1.72677080222638
25.3885969999954,1.65655581117608
25.404299999997,1.66782886019791
25.4209219999984,1.69585043919506
25.4358940000013,1.6507582431077
25.4523980000019,1.67040555711719
25.4679409999996,1.66686259885319
25.4829090000018,1.66460798904882
25.5009949999973,1.68167860613903
25.5167039999962,1.62756797083421
25.5339429999962,1.8639799131779
25.5483430000022,1.74706229046569
25.5674619999975,1.86011486779898
25.6214560000002,1.68844243555213
25.640373999998,1.80954719075817
25.6562789999992,1.66364172770409
25.672560999997,1.74255307085696
25.6868969999999,1.64109562966041
25.7068280000016,1.77347343388828
25.7284849999994,1.73192419606494
25.7492529999986,1.63626432293677
25.7666730000004,1.65011406887788
25.7842349999994,1.67652521230048
25.8043549999967,1.67491477672593
25.8254849999994,1.75447029410861
25.8445670000017,1.74931690027006
25.8687290000021,1.82597363361856
25.8910960000008,1.86591243586736
25.9206349999979,1.63207719044294
25.9451000000015,1.27166170885903
25.9659759999961,1.40339533885708
25.9833579999954,1.970590748213
26.0031199999973,1.73868802547804
26.0246079999954,1.75640281679807
26.0455539999977,1.74996107449988
26.0660359999985,1.6771693865303
26.0815069999993,1.68650991286268
26.0971059999987,1.663963814819
26.1149299999997,1.70261426860816
26.1332739999965,1.73224628317985
26.1484200000018,1.60437769856071
26.1656979999989,1.68522156440304
26.1835689999983,1.66428590193391
26.2027339999974,1.67266016692156
26.2185780000016,1.66235337924445
26.2358949999958,1.51612582907546
26.2508579999954,1.61983788007637
26.2645969999954,1.91293715464417
26.2793989999965,1.53190809770604
26.2938839999959,1.58762916858541
26.3077259999961,1.90520706388634
26.3251409999952,1.49841103775543
26.3493379999995,1.70647931398707
26.373736999996,1.7306358476053
26.4016009999961,1.65655581117608
26.4274420000017,1.7605899492919
26.4514809999987,1.6771693865303
26.4768559999987,1.73643341567367
26.5027349999994,1.6507582431077
26.5254909999967,1.73289045740967
26.5519299999997,1.62563544814475
26.5736920000017,1.73128002183512
26.5900769999996,1.75350403276389
26.6057109999955,1.71002227225108
26.6215190000013,1.70680140110198
26.6377659999952,1.88266096584266
26.6550909999982,2.01536085718544
26.6725639999956,1.99764606586541
26.6885319999978,1.37891671812395
26.7445239999965,1.77443969523301
26.7604799999967,1.83982337955968
26.7771330000013,1.72354993107729
26.7924109999984,1.74931690027006
26.8079010000005,1.70486887841253
26.8243500000015,1.73578924144385
26.8409790000021,1.78828944117413
26.8610780000016,1.73868802547804
26.8790839999989,1.74835063892533
26.8990150000006,1.69005287112668
26.9242769999951,1.73611132855876
26.9442769999951,1.82307484958437
26.9647760000005,1.56572724477155
26.9832739999965,1.77572804369265
27.0013919999972,1.48230668200995
27.0313799999952,1.38439219907741
27.0518519999981,1.50163190890453
27.070262000002,1.69101913247141
27.0882039999962,1.71485357897473
27.1070729999989,1.79956249019597
27.1254519999996,1.7238720181922
27.1427889999971,1.76155621063663
27.1598790000007,1.67491477672593
27.1770909999982,1.75930160083226
27.1966950000003,1.74094263528241
27.2135029999986,1.71098853359581
27.2287309999987,1.72000697281328
27.2414629999995,1.73160210895003
27.2544340000004,1.6874761742074
27.2676499999985,1.6539791142568
27.2797980000004,1.72902541203075
27.2924420000017,1.77669430503738
27.3051789999977,1.70841183667653
27.3184319999963,1.86140321625862
27.3319739999995,1.5373835786595
27.3455949999988,1.51129452235182
27.3597409999967,1.97574414205155
27.3727939999998,1.49905521198525
27.3864739999995,1.86816704567173
27.3996079999954,1.6008347402967
27.4163769999966,1.51258287081146
27.4287639999986,1.82758406919311
27.4496019999981,1.71549775320455
27.4752529999986,1.74255307085696
27.4982879999951,1.72354993107729
27.520623999998,1.70970018513617
27.5410639999956,1.75479238122352
27.5641339999959,1.69907131034415
27.5857549999952,1.69907131034415
27.6104680000022,1.74899481315515
27.6355469999984,1.66493007616373
27.6546379999965,1.72129532127292
27.668924999997,1.67684729941539
27.7236719999984,1.5006656475598
27.7439450000003,1.60985317951418
27.7616999999955,2.08557584823575
27.7821049999967,1.89361192774959
27.7996459999979,1.53641731731477
27.8136689999998,1.87267626528046
27.8314460000023,1.80181710000033
27.8473579999953,1.64689319772879
27.8612889999971,1.78828944117413
27.8820689999983,1.71614192743436
27.9039029999971,1.68554365151795
27.9265349999964,1.7541482069937
27.9460799999982,1.78635691848467
27.9707089999989,1.67813564787502
27.9891539999992,1.73160210895003
28.0109429999962,1.76509916890063
28.033762000002,1.66042085655499
28.0555469999984,1.66106503078481
28.0788159999996,1.66557425039355
28.1009270000011,1.71710818877909
28.1201480000019,2.16706388830789
28.1392320000008,2.07752367036301
28.1580679999962,1.85818234510953
28.1749200000018,1.54446949518751
28.1916049999967,1.56218428650755
28.2081009999961,1.61049735374399
28.2251719999984,1.79215448655304
28.2416569999978,1.78216978599085
28.258125,1.76638751736027
28.2737280000001,1.77379552100319
28.2871599999964,1.66009876944008
28.300637000002,1.72902541203075
28.3135269999951,1.71646401454927
28.3256309999973,1.74609602912096
28.3390069999993,1.72677080222638
28.3535909999982,1.69552835208015
28.3718559999987,1.71259896917036
28.390061999999,1.75447029410861
28.4081309999973,1.74223098374205
28.4268249999955,1.73160210895003
28.4447899999991,1.82790615630802
28.4620080000013,1.8204981526651
28.4820329999998,1.80342753557488
28.5005939999968,1.66493007616373
28.5190199999958,1.65236867868225
28.5410399999991,1.8771854848892
28.5665370000005,1.5174141775351
28.5885309999958,1.66042085655499
28.616623999998,1.70358052995289
28.6363699999973,1.67588103807066
28.6554279999956,1.73031376049039
28.6732669999972,1.85463938684552
28.730861999996,1.74448559354641
28.7432730000019,1.87944009469356
28.755675999999,1.71549775320455
28.7681030000001,1.64302815234987
28.7808399999961,1.6874761742074
28.7951349999979,1.72258366973256
28.8085109999999,1.73514506721403
28.8223559999987,1.74190889662714
28.835236999996,1.54801245345152
28.8468249999955,1.76477708178572
28.8601569999978,1.81309014902217
28.874486999996,1.91325924175908
28.8893509999961,1.74867272604024
28.9083500000015,1.4372144859226
28.931376000002,1.31449929514201
28.949486999996,1.40597203577636
28.9681660000011,1.67781356076011
28.9851040000021,1.69681670053978
29.0029319999963,1.67362642826629
29.0206810000017,1.65526746271644
29.0387569999993,1.79634161904687
29.0573799999952,1.71356523051509
29.0759609999955,1.767353778705
29.0931519999951,1.75318194564898
29.1105190000013,1.78764526694431
29.1298409999982,1.69134121958632
29.1475450000018,1.69585043919506
29.1661599999964,1.68715408709249
29.1845670000017,1.65913250809535
29.2050529999956,1.69939339745906
29.2240139999986,1.74931690027006
29.2448229999989,1.66976138288737
29.2600379999951,1.77218508542865
29.2729420000017,1.69134121958632
29.2857609999999,1.48198459489504
29.3015370000005,2.06464018576662
29.3145539999977,1.40983708115527
29.3293460000008,1.84497677339823
29.342423999995,1.75092733584461
29.3557309999987,1.65365702714189
29.3695780000016,1.69262956804596
29.3850769999996,1.65623372406117
29.3954109999985,1.73321254452458
29.4094389999956,1.74899481315515
29.4229090000018,1.77025256273919
29.4360399999991,1.64850363330333
29.4509270000011,1.65430120137171
29.4684289999977,1.67298225403647
29.4883439999968,1.71002227225108
29.5066229999959,1.7506052487297
29.5276099999994,1.76091203640681
29.5468969999999,1.7274149764562
29.5666019999981,1.66364172770409
29.5836569999978,1.67201599269174
29.6019959999993,1.67781356076011
29.6210289999992,1.61693909604219
29.6400399999991,1.77991517618648
29.6570989999995,1.8407896409044
29.6741209999993,1.66782886019791
29.6909860000014,1.60276726298616
29.707175999999,1.6072764825949
29.7254289999977,1.64850363330333
29.7440839999989,1.67169390557683
29.8119399999976,1.75575864256825
29.8302360000014,1.70680140110198
29.8473039999977,1.69424000362051
29.8658350000009,1.67008347000228
29.8851599999964,1.64624902349897
29.9046229999959,1.68135651902412
29.9257390000001,1.73675550278858
29.9445300000012,1.7705746498541
29.9650309999958,1.72838123780093
29.985111999996,1.68844243555213
30.0023090000004,1.68715408709249
30.0172919999957,1.6372305842815
30.0331960000023,1.77862682772684
30.0481189999953,1.50807365120272
30.0597329999954,2.10973238185397
30.0742609999999,1.64689319772879
30.0888060000017,1.4707115458732
30.1031309999973,2.00763076642761
30.1191920000017,1.80439379691961
30.132498999998,1.29936120074126
30.1464270000011,1.98991597510758
30.1605329999998,1.81083553921781
30.174876000002,1.56959229015047
30.1893650000021,1.80986927787308
30.2031889999956,1.7106664464809
30.2224169999957,1.68618782574777
30.2423390000016,1.84658720897278
30.2625040000007,1.76187829775154
30.2802950000018,1.64335023946478
30.2977409999967,1.71324314340018
30.3144069999978,1.74835063892533
30.3345469999984,1.64431650080951
30.3536909999996,1.67555895095575
30.3738610000014,1.75801325237262
30.3929589999989,1.77218508542865
30.4126829999983,1.81180180056253
30.4321349999979,1.77025256273919
30.453425999999,1.37344123717048
30.4722879999951,1.25684570157318
30.4926999999955,2.03243147427565
30.5129270000011,2.04756956867641
30.5341019999981,1.61693909604219
30.5531510000005,1.63851893274114
30.5731049999967,1.74255307085696
30.5937980000004,1.7841023086803
30.6173949999958,1.66170920501463
30.6397879999951,1.77862682772684
30.6593729999959,1.76348873332608
30.6804549999982,1.7274149764562
30.6998100000024,1.64335023946478
30.7177009999976,1.64818154618843
30.7323669999987,1.66203129212954
30.7447189999968,1.7406205481675
30.7612870000005,1.71163270782563
30.7793849999979,1.72032905992819
30.7963849999979,1.62305875122547
30.8127980000004,2.22117452361272
30.8309129999951,1.7106664464809
30.846310999997,1.49583434083615
30.8629319999963,1.78442439579521
30.8787140000016,2.01632711853017
30.8942589999959,1.46652441337937
30.9523989999965,1.70100383303361
30.9683579999954,1.65301285291207
30.9840029999986,1.5840862103214
30.9993500000015,1.69005287112668
31.0219979999959,1.6906970453565
31.0476499999985,1.71259896917036
31.0690670000017,1.61693909604219
31.0900920000002,1.75897951371735
31.1131379999965,1.72032905992819
31.1344699999988,1.66428590193391
31.1551299999952,1.60244517587125
31.1775389999971,1.91615802579327
31.196811999999,1.91648011290818
31.2147690000013,2.06367392442189
31.2319289999977,1.65269076579716
31.2479149999991,1.46008267108118
31.2624839999974,2.02534555774764
31.2746070000008,1.63433180024731
31.2891929999962,1.79440909635741
31.3007400000021,1.65591163694626
31.3129860000014,1.68103443190921
31.3260659999996,1.78667900559958
31.3397669999972,1.74126472239732
31.353299999997,1.68779826132231
31.3669839999974,1.69198539381614
31.3792089999989,1.61790535738692
31.3933100000024,1.78249187310576
31.407137000002,1.78120352464612
31.4209949999973,1.79022196386359
31.436811999999,1.69810504899942
31.4547039999962,1.75479238122352
31.4740799999982,1.76252247198136
31.4931290000007,1.75511446833843
31.5112699999958,1.72161740838783
31.5305989999995,1.71871862435364
31.5488409999982,1.74287515797187
31.5661389999986,1.66267546635936
31.5857879999951,1.78184769887594
31.6050370000005,2.03533025830984
31.6260139999986,2.06753896980081
31.6445239999965,1.65236867868225
31.6631279999986,1.63046675486839
31.6834570000023,1.52900931367185
31.6981339999959,1.69649461342487
31.7098579999954,1.79312074789777
31.7236059999987,1.74577394200605
31.737248999998,1.7106664464809
31.7501440000013,1.71517566608964
31.7620549999997,1.71549775320455
31.7750639999956,1.78828944117413
31.8222210000008,1.73643341567367
31.8350029999986,1.67330434115138
31.8477809999958,1.67877982210484
31.8603299999982,1.77572804369265
31.878688000001,1.72870332491584
31.8963430000022,1.64914780753315
31.9177929999977,1.74609602912096
31.9364050000012,1.61565074758255
31.955935999997,1.96157230899553
31.9754319999963,2.24984027683968
31.9977299999967,1.85335103838588
32.0216030000001,1.81244597479235
32.0432409999967,1.79666370616178
32.0693179999962,1.63594223582186
32.0908650000021,1.75962368794717
32.1102699999958,1.73546715432894
32.1275029999986,1.7773384792672
32.1412219999954,1.71420940474491
32.1555759999976,1.71259896917036
32.1710439999998,1.67266016692156
32.1867589999959,1.73128002183512
32.2041960000023,1.71453149185982
32.2203519999981,1.69971548457397
32.2376909999996,1.68135651902412
32.2558570000008,1.72193949550274
32.2733530000001,1.74223098374205
32.2892749999985,1.76348873332608
32.3129059999958,1.7206511470431
32.340438000001,1.86945539413136
32.3687580000013,1.84884181877715
32.394612999998,2.09556054879795
32.4166689999998,1.74319724508678
32.4374560000002,1.4507421447488
32.455548999995,1.78120352464612
32.4720439999998,1.73901011259295
32.4878579999953,1.74963898738497
32.5068139999956,1.74158680951223
32.5252849999964,1.72966958626057
32.5407959999964,1.76252247198136
32.5559759999961,1.73289045740967
32.5709530000016,1.70325844283798
32.5866660000011,1.66686259885319
32.6096950000003,1.76574334313045
32.6343469999954,1.64914780753315
32.6569350000024,1.76993047562428
32.6798299999982,1.63272136467276
32.7048809999973,1.41982178171747
32.7266979999989,2.02309094794327
32.7453489999995,2.17479397906573
32.762362999998,1.48230668200995
32.7795839999989,1.47811954951612
32.7965439999998,1.87138791682082
32.8156469999999,1.7306358476053
32.830375,1.69520626496524
32.8443909999952,1.75511446833843
32.8603900000006,1.76799795293482
32.8824479999989,1.66589633750846
32.9183689999953,1.72612662799656
32.9778329999968,1.72290575684747
32.9951349999979,1.72709288934129
33.0102939999998,1.76026786217699
33.0246409999952,1.78152561176103
33.037425999999,1.69520626496524
33.0502819999978,1.6807123447943
33.0653859999999,1.58827334281523
33.0791960000023,1.8072925809538
33.0940329999998,1.48166250778013
33.1104499999955,1.97091283532791
33.1280579999983,1.48810425007832
33.1483100000024,1.307413378614
33.1660239999965,1.6707276442321
33.183625,1.717430275894
33.2019750000015,1.66106503078481
33.2219179999977,1.74126472239732
33.2398320000023,1.74158680951223
33.2583969999999,1.82082023978001
33.2762100000009,1.75801325237262
33.2952349999994,1.6671846859681
33.3115539999977,1.73256837029476
33.3242779999971,1.75157151007443
33.3366019999981,1.71163270782563
33.3514729999974,1.6771693865303
33.362048999995,1.70164800726343
33.373736999996,1.75285985853407
33.3866539999992,1.70261426860816
33.4004930000007,1.67555895095575
33.4134209999964,1.68489947728813
33.4308650000021,1.66331964058918
33.4487229999974,1.81920980420546
33.4680659999996,1.24009717159788
33.4871609999985,1.43206109208404
33.5061920000017,1.7940870092425
33.5239279999956,1.94579004036495
33.5430459999964,1.74512976777623
33.5618549999967,1.73450089298422
33.5796199999973,1.67845773498993
33.6004710000008,1.64818154618843
33.6141539999992,1.63755267139641
33.6274939999953,1.82693989496329
33.6390169999972,1.69971548457397
33.6521639999971,1.7074455753318
33.6676909999996,1.61339613777818
33.6868149999976,1.70937809802126
33.6977849999964,1.65462328848662
33.7120399999991,1.71710818877909
33.7257109999955,1.75801325237262
33.742050999999,1.77894891484175
33.7567899999991,1.76799795293482
33.7733530000001,1.75865742660244
33.7918709999993,1.86172530337353
33.8117100000009,1.61758327027201
33.8314609999955,1.5241780069482
33.8483149999976,1.52482218117802
33.8721539999992,1.78216978599085
33.8913409999981,1.8539952126157
33.910248999998,1.80858092941344
33.9840649999976,1.69456209073542
34.0022910000011,1.65333494002698
34.0171909999996,1.71002227225108
34.0294099999964,1.60244517587125
34.0430920000002,1.75897951371735
34.0568280000016,1.77508386946283
34.071949000001,1.7541482069937
34.0866000000015,1.69585043919506
34.1004799999967,1.6539791142568
34.1127779999971,1.69262956804596
34.1270939999968,1.72999167337548
34.141425999999,1.6372305842815
34.159751000002,2.08525376112084
34.1776339999959,1.71678610166418
34.1958179999962,1.30966798841837
34.2170670000017,1.51483748061582
34.2348799999952,1.71259896917036
34.253574000001,1.77959308907157
34.2722239999995,1.76091203640681
34.2894970000014,1.74190889662714
34.3074909999967,1.79601953193196
34.3264839999974,1.77218508542865
34.3443839999959,1.71453149185982
34.3630780000016,1.67427060249611
34.384299999997,1.67459268961102
34.404299999997,1.71453149185982
34.4251220000014,1.78152561176103
34.439486999996,1.76316664621118
34.4530759999976,1.72226158261765
34.4663329999968,1.62048205430619
34.4792109999955,1.86333573894808
34.4924729999974,1.42239847863675
34.5052699999958,2.12036125664599
34.5190429999977,1.5241780069482
34.5324469999969,1.76381082044099
34.5453149999976,1.52675470386748
34.5581480000019,1.77443969523301
34.5708809999973,1.75479238122352
34.584125,1.5441474080726
34.5969289999977,1.7306358476053
34.6159460000023,1.66299755347427
34.6346969999969,1.69134121958632
34.6574919999987,1.76252247198136
34.6766110000014,1.76799795293482
34.694126000002,1.70454679129762
34.7114310000017,1.73224628317985
34.7758249999955,1.77154091119883
34.79325,1.76670960447518
34.8115419999957,1.74029846105259
34.8295799999982,1.70712348821689
34.8491330000013,1.46426980357501
34.8670759999976,2.00698659219779
34.8793020000011,1.42143221729202
34.8920329999998,2.01825964121963
34.9046220000014,1.64785945907352
34.9223699999973,1.61436239912291
34.9353709999993,1.76091203640681
34.9475810000002,1.53094183636131
34.9615179999992,1.77347343388828
34.9744169999957,1.76509916890063
34.9877789999992,1.75382611987879
34.9994169999957,1.66235337924445
35.0129549999982,1.68715408709249
35.0270689999983,1.73804385124822
35.0480359999984,1.67910190921975
35.0651379999965,1.64431650080951
35.0925600000024,1.65881042098044
35.1101379999965,1.74029846105259
35.1323430000022,1.6671846859681
35.1501660000011,1.65140241733752
35.1678170000017,1.69134121958632
35.1873200000003,1.7506052487297
35.2044970000014,1.65301285291207
35.2233819999993,1.88040635603829
35.2497580000013,1.87847383334883
35.3342969999984,1.61983788007637
35.3865969999954,1.73160210895003
35.4432009999976,1.75575864256825
35.4670370000005,1.66976138288737
35.4929589999989,1.76960838850937
35.5239600000009,1.75318194564898
35.5553999999985,1.74996107449988
35.585486999996,1.7573690781428
35.6069629999995,1.71292105628527
35.6307459999993,1.41692299768329
35.6541099999994,1.32609443127876
35.6742749999985,1.42594143690076
35.6927580000013,1.58118742628722
35.7115960000008,1.64528276215424
35.7283329999968,1.66235337924445
35.7460979999974,1.71453149185982
35.7680639999956,1.71098853359581
35.7944219999984,1.75897951371735
35.8159200000018,1.64206189100514
35.8393350000009,1.71356523051509
35.8604670000002,1.73417880586931
35.8793579999953,1.68328904171358
35.9001620000005,1.66364172770409
35.9161999999955,1.66460798904882
35.9325850000009,1.66686259885319
35.9479439999983,1.64560484926915
35.9621409999952,1.67845773498993
35.976311999999,1.72451619242202
35.9921049999967,1.87847383334883
36.0080129999965,1.64624902349897
36.0796579999998,1.78442439579521
36.1022569999993,1.78893361540395
36.1188149999976,1.79312074789777
36.1346030000001,1.65623372406117
36.1509780000001,1.70261426860816
36.1685379999951,1.66138711789972
36.1850799999982,1.68039025767939
36.2115080000013,1.68296695459867
36.2373189999983,1.5940709108836
36.2616419999972,1.69424000362051
36.2832919999957,1.65816624675062
36.3003329999968,1.64238397812005
36.3196689999998,1.7074455753318
36.3370869999975,1.72483827953693
36.3590869999975,1.7605899492919
36.3914420000017,1.76767586581991
36.4178039999977,1.49164720834233
36.4294149999991,1.83628042129567
36.4536089999974,1.76187829775154
36.4783959999979,1.74545185489114
36.4996269999966,1.65913250809535
36.517548999995,1.45331884166808
36.5422529999986,1.79279866078286
36.5644450000003,1.65011406887788
36.5900759999976,1.78281396022066
36.6091269999966,1.77637221792247
36.6275820000023,1.68779826132231
36.6447049999982,1.76799795293482
36.660126000002,1.69842713611433
36.675987999998,1.76091203640681
36.6967599999979,1.68103443190921
36.7208509999961,1.74126472239732
36.7415309999958,1.77218508542865
36.7628359999955,1.67008347000228
36.7813020000011,1.68135651902412
36.8003269999996,1.66428590193391
36.8163980000019,1.63980728120077
36.8342959999964,1.74867272604024
36.8500099999979,1.43012856939458
36.8651400000006,1.62144831565092
36.8808729999959,1.84336633782368
36.9001030000001,1.81180180056253
36.9266639999971,2.09813724571723
36.945248999998,1.85947069356916
36.9622540000007,1.57796655513812
36.9810389999971,1.66750677308301
36.9990869999975,1.67427060249611
37.0163170000017,1.68328904171358
37.0298139999956,1.64141771677532
37.0430459999964,1.8040717098047
37.0553359999955,1.74126472239732
37.0693729999959,1.69166330670123
37.0850930000022,1.7338567187544
37.1043570000008,1.76252247198136
37.1218929999992,1.72644871511147
37.1413379999995,1.76445499467081
37.1584139999971,1.75672490391298
37.2170239999965,1.68844243555213
37.2284699999988,1.69585043919506
37.2418989999965,1.74255307085696
37.2557290000021,1.77186299831374
37.2746559999958,1.69842713611433
37.2928060000017,1.78700109271449
37.3119299999997,1.8607590420288
37.3282829999998,1.91615802579327
37.347998999998,1.45815014839172
37.3663179999962,1.65494537560153
37.3846850000024,1.68328904171358
37.4066440000013,1.71163270782563
37.4281000000015,1.70422470418271
37.4441330000013,1.71420940474491
37.4593020000011,1.75124942295952
37.4761220000014,1.73289045740967
37.4942519999966,1.70808974956162
37.510361999996,1.72322784396238
37.5287100000009,1.69617252630997
37.5468289999962,1.64914780753315
37.5652070000023,1.63497597447713
37.5833369999975,1.66879512154264
37.6019560000002,1.71388731763
37.6224649999961,1.69649461342487
37.6398570000008,1.7605899492919
37.6578280000016,1.74255307085696
37.675560999997,1.78345813445048
37.6927119999975,1.76026786217699
37.7110780000016,1.71098853359581
37.7252859999984,1.77121882408392
37.7397199999988,1.74319724508678
37.7558179999962,1.76896421427955
37.7683039999977,1.72516036665183
37.7813599999994,1.67040555711719
37.7931199999973,1.75994577506208
37.8065869999975,1.75608072968316
37.8200789999962,1.75285985853407
37.8364659999982,1.71968488569837
37.8550150000006,1.74545185489114
37.8740059999973,1.75930160083226
37.8918849999979,1.767353778705
37.9114640000016,1.71871862435364
37.9366030000001,1.72677080222638
37.9557210000008,1.76026786217699
37.9733149999976,1.76670960447518
37.9918650000021,1.77379552100319
38.0100269999951,1.73836593836313
38.0279200000018,1.70100383303361
38.0410549999997,1.76155621063663
38.0548519999981,1.76703169159009
38.0683020000011,1.6771693865303
38.0810059999973,1.66911720865755
38.0942039999962,1.71839653723873
38.1094570000023,1.73160210895003
38.1291709999964,1.67040555711719
38.1505869999975,1.69166330670123
38.1743339999989,1.77379552100319
38.1965979999974,1.68232278036885
38.2193839999959,1.70647931398707
38.2432699999958,1.71871862435364
38.2600109999999,1.73095793472021
38.2772709999979,1.68264486748376
38.2925199999958,1.7338567187544
38.3088049999997,1.74223098374205
38.3672349999994,1.66299755347427
38.3900719999969,1.75575864256825
38.4134829999954,1.67008347000228
38.4434759999961,1.7306358476053
38.492563000001,1.75189359718934
38.5441550000012,1.72419410530711
38.5693940000013,1.70776766244671
38.5869699999988,1.7406205481675
38.6046999999955,1.75157151007443
38.6334680000022,1.66364172770409
38.6610069999993,1.69713878765469
38.6865749999955,1.6774914736452
38.7129289999977,1.6839332159434
38.7307969999984,1.66815094731282
38.746324000001,1.67201599269174
38.7612079999968,1.69424000362051
38.7754509999976,1.75575864256825
38.793662999995,1.77121882408392
38.8110169999972,1.72516036665183
38.829049999997,1.71904071146855
38.8446789999977,1.74480768066132
38.8662400000021,1.68779826132231
38.8892709999979,1.79698579327669
38.9078489999995,1.76993047562428
38.9308269999996,1.6607429436699
38.9526599999964,1.717430275894
38.9743449999988,1.75575864256825
38.9888069999963,1.74319724508678
39.0052019999996,1.7506052487297
39.0196499999985,1.72548245376674
39.0333699999973,1.6507582431077
39.0441059999987,1.6807123447943
39.0584189999998,1.70229218149325
39.0772889999971,1.69134121958632
39.0999340000004,1.6439944136946
39.1202479999959,1.71002227225108
39.1428500000015,1.71131062071072
39.1651669999957,1.72097323415801
39.1804839999974,1.63851893274114
39.1973589999974,1.65913250809535
39.2129579999968,1.68264486748376
39.2268139999956,1.69005287112668
39.2420209999979,1.72870332491584
39.2538020000011,1.73836593836313
39.2694759999961,1.72612662799656
39.2874909999967,1.74126472239732
39.3086649999991,1.70937809802126
39.3303989999965,1.66170920501463
39.3489780000001,1.66331964058918
39.3665839999989,1.66782886019791
39.3861299999952,1.74287515797187
39.4039160000011,1.71678610166418
39.4240719999969,1.77250717254356
39.4410789999962,1.75253777141916
39.455298999995,1.76477708178572
39.468611999996,1.68844243555213
39.4851840000004,1.58634082012577
39.4951770000011,1.82243067535455
39.5190139999986,1.84014546667458
39.5455249999985,1.68715408709249
39.5663269999996,1.65269076579716
39.5837540000007,1.60888691816945
39.5979759999961,1.66042085655499
39.6115539999977,1.66331964058918
39.6285249999985,1.70293635572307
39.6486679999977,1.66428590193391
39.6677939999998,1.70422470418271
39.7323769999966,1.66750677308301
39.7434109999985,1.7006817459187
39.7551319999993,1.75221568430425
39.7731979999989,1.75930160083226
39.7909909999967,1.75865742660244
39.8093799999952,1.74094263528241
39.8284069999978,1.77476178234792
39.8453980000019,1.54479158230242
39.8628640000001,1.47328824279248
39.8800150000006,1.80246127423015
39.8928210000023,1.74609602912096
39.9074329999983,1.32802695396822
39.9212219999954,1.89586653755396
39.9351209999993,1.71388731763
39.9530780000016,1.80858092941344
39.9724209999964,1.74577394200605
39.9936829999983,1.73224628317985
40.0100260000005,1.75253777141916
40.0291419999972,1.71839653723873
40.0507129999995,1.67266016692156
40.0683020000011,1.73031376049039
40.0815080000013,1.62660170948948
40.0940239999965,1.717430275894
40.1070920000002,1.77605013080756
40.1229059999958,1.74255307085696
40.1397019999996,1.7473843775806
40.1587390000001,1.77701639215229
40.1774389999956,1.76316664621118
40.1964579999968,1.68522156440304
40.2159719999954,1.67588103807066
40.2350199999958,1.64302815234987
40.2541950000003,1.77250717254356
40.2704389999956,1.70712348821689
40.283737999998,1.63884101985605
40.2956059999987,1.68489947728813
40.3100429999977,1.71131062071072
40.323425999999,1.78700109271449
40.3423229999989,1.67201599269174
40.3602559999973,1.71163270782563
40.3784799999967,1.6839332159434
40.3978159999996,1.70873392379144
40.4203350000009,1.79698579327669
40.4364710000008,1.54672410499188
40.4509829999954,1.59696969491779
40.4642459999993,1.71517566608964
40.4774710000008,1.65623372406117
40.4926150000021,1.60985317951418
40.5121339999959,1.55348793440498
40.5326000000015,1.50775156408781
40.5542789999992,1.77572804369265
40.5766309999973,1.60953109239927
40.5963179999962,1.70100383303361
40.614300999999,1.65913250809535
40.6302739999965,1.70358052995289
40.6450159999952,1.68361112882849
40.6634799999967,1.70132592014852
40.6890639999956,1.74867272604024
40.7109979999959,1.75447029410861
40.7332089999989,1.6839332159434
40.7508959999979,1.6771693865303
40.7656059999987,1.67845773498993
40.7795209999979,1.64528276215424
40.7924350000024,1.70615722687216
40.8108500000015,1.70164800726343
40.8300899999961,1.67555895095575
40.8491510000005,1.65591163694626
40.867376000002,1.65945459521026
40.8860529999956,1.8005287515407
40.9037210000008,1.88910270814085
40.9213709999993,1.87460878796992
40.9356840000004,1.43689239880769
40.9485029999986,1.99893441432505
40.9626950000003,1.56476098342682
41.0127719999999,1.6939179165056
41.0314849999994,1.70615722687216
41.0502269999981,1.66911720865755
41.0729109999984,1.76026786217699
41.0938249999955,1.68618782574777
41.1131480000019,1.66299755347427
41.1322609999999,1.6874761742074
41.1456529999971,1.68200069325394
41.1587079999968,1.72548245376674
41.1716550000012,1.76799795293482
41.184001000002,1.69134121958632
41.2013589999974,1.70647931398707
41.2172170000002,1.73256837029476
41.2372329999953,1.89812114735832
41.257126000002,1.68973078401177
41.276824000001,1.76316664621118
41.2957329999954,1.7605899492919
41.3124750000015,1.51902461310965
41.3353689999953,1.57603403244866
41.3524890000001,1.69488417785033
41.3678039999977,1.71678610166418
41.3819549999982,1.68264486748376
41.3918799999952,1.70551305264235
41.4059780000001,1.75897951371735
41.4207779999971,1.71871862435364
41.4408159999996,1.71356523051509
41.4596229999959,1.7373996770184
41.478175999999,1.65816624675062
41.4955549999997,1.67620312518557
41.515876000002,1.68039025767939
41.5292290000021,1.6571999854059
41.542688000001,1.71485357897473
41.5552919999957,1.76123412352172
41.5685129999965,1.71420940474491
41.5865230000019,1.77959308907157
41.6108269999996,1.94772256305441
41.6300480000004,2.00183319835924
41.6492549999952,1.82693989496329
41.6668799999952,1.6040556114458
41.6838439999968,1.33189199934714
41.6966979999989,1.86430200029281
41.7107549999952,1.67845773498993
41.7295279999971,1.74512976777623
41.750060999997,1.69810504899942
41.7705179999992,1.72483827953693
41.7893549999967,1.73611132855876
41.8048989999965,1.77379552100319
41.8211449999958,1.7206511470431
41.8366449999958,1.72322784396238
41.8531209999993,1.66557425039355
41.8750069999993,1.71710818877909
41.894949000001,1.68361112882849
41.9119429999962,1.67555895095575
41.9265749999955,1.71131062071072
41.9404029999971,1.75350403276389
41.9554799999967,1.75350403276389
41.9727769999951,1.87042165547609
41.9933409999982,2.22858252725564
42.0140450000018,1.88040635603829
42.0313379999995,1.28905441306415
42.0449069999978,1.77605013080756
42.0605700000003,1.62789005794912
42.0753460000008,1.73128002183512
42.1404450000003,1.75221568430425
42.1588350000009,1.7541482069937
42.1718430000022,1.74802855181042
42.1841950000003,1.65172450445243
42.2015059999973,1.63626432293677
42.2208100000024,1.76252247198136
42.2398729999959,1.74577394200605
42.2527709999979,1.717430275894
42.2650459999964,1.66847303442773
42.2785729999989,1.66299755347427
42.2948720000014,1.67266016692156
42.3120659999996,1.66589633750846
42.329751000002,1.564116809197
42.3486389999986,1.65784415963572
42.3631459999979,1.57667820667848
42.3762100000009,1.54092653692351
42.3919069999978,1.79601953193196
42.4133379999995,1.52514426829293
42.4295260000005,1.73321254452458
42.4426070000008,1.60469978567562
42.461112999998,1.72419410530711
42.4807470000014,1.66525216327864
42.4961920000017,1.68973078401177
42.5119230000004,1.65945459521026
42.532185999997,1.68039025767939
42.5493469999954,1.60502187279053
42.5653029999957,1.67845773498993
42.5849979999959,1.66654051173828
42.6037709999979,1.71388731763
42.6209019999951,1.7741176081181
42.6433249999955,1.71195479494054
42.6609519999996,1.69230748093105
42.679050999999,1.68683199997758
42.6962849999964,1.75704699102789
42.7150939999968,1.66042085655499
42.7273509999961,1.55638671843917
42.7454289999977,1.76864212716464
42.759673999995,1.61854953161674
42.7799209999964,1.46491397780483
42.7970890000015,1.50903991254745
42.8154129999951,1.77766056638211
42.8290759999976,1.65977668232517
42.8453969999999,1.70583513975726
42.8617719999999,1.69713878765469
42.8784890000001,1.72709288934129
42.8965239999965,1.69617252630997
42.9131689999998,1.59342673665378
42.9272159999982,1.71195479494054
42.9414530000016,1.7573690781428
42.9590419999957,1.70132592014852
42.9723189999983,1.73417880586931
42.9909769999981,1.76091203640681
43.0072089999989,1.73256837029476
43.0201319999993,1.72709288934129
43.0389230000004,1.73095793472021
43.0569350000024,1.73868802547804
43.0706979999989,1.73514506721403
43.1335049999952,1.48262876912486
43.1510539999977,1.37150871448102
43.1683219999969,1.62853423217894
43.1884409999996,1.74319724508678
43.2071049999967,1.67362642826629
43.2200909999981,1.79376492212759
43.2332089999989,1.71807445012382
43.2493949999958,1.75608072968316
43.2682939999998,1.72934749914566
43.2882030000016,1.78796735405922
43.3055930000022,1.73965428682277
43.3206999999955,1.79440909635741
43.3372269999981,1.76316664621118
43.3574519999996,1.76187829775154
43.3781290000007,1.67137181846192
43.3929409999996,1.69552835208015
43.4109340000004,1.68457739017322
43.4317280000001,1.65816624675062
43.4473379999995,1.67008347000228
43.4619609999955,1.6774914736452
43.4778069999963,1.72451619242202
43.4947199999988,1.69520626496524
43.5094179999977,1.81759936863091
43.5255729999989,1.54479158230242
43.540986999996,1.8240411109291
43.5570450000018,1.94579004036495
43.5720069999993,1.93258446865366
43.5885700000003,1.71968488569837
43.604425999999,1.65301285291207
43.6217329999954,1.78571274425485
43.6368049999997,1.75930160083226
43.6532939999998,1.74029846105259
43.6687569999993,1.69713878765469
43.6844169999957,1.69230748093105
43.700001000002,1.65365702714189
43.7145899999961,1.64946989464806
43.7286569999978,1.64657111061388
43.743126000002,1.65848833386553
43.7589860000014,1.69262956804596
43.7753980000019,1.69778296188451
43.7926359999999,1.69005287112668
43.808674999997,1.68554365151795
43.8224710000008,1.73128002183512
43.8434010000005,1.68296695459867
43.857248999998,1.7106664464809
43.8730600000024,1.8340258114913
43.8887329999953,1.76864212716464
43.9086459999979,1.85689399664989
43.9257789999992,1.85818234510953
43.9409649999961,1.67298225403647
43.9600389999971,1.78764526694431
43.9710370000005,1.62853423217894
43.9890199999958,1.80149501288543
44.0052969999984,1.75575864256825
44.0188889999986,1.7438414193166
44.0348420000002,1.75092733584461
44.0515639999956,1.70583513975726
44.0683549999967,1.75833533948753
44.0822470000014,1.67620312518557
44.0977320000008,1.68779826132231
44.1121950000003,1.67491477672593
44.1296189999953,1.65591163694626
44.144748999998,1.6874761742074
44.159063000001,1.82500737227383
44.1770700000003,1.71614192743436
44.193675999999,1.69939339745906
44.2088879999965,1.73675550278858
44.277512000002,1.82565154650365
44.2945569999963,1.79440909635741
44.3063640000001,1.56121802516282
44.323125,1.70261426860816
44.3406590000018,1.55477628286462
44.3581559999958,2.02824434178183
44.3766499999985,1.76864212716464
44.3951400000006,1.61500657335273
44.4158229999989,1.70905601090635
44.4368519999981,1.74931690027006
44.458173999995,1.74029846105259
44.476675999999,1.70003757168888
44.4949499999955,1.71420940474491
44.5123809999973,1.67555895095575
44.5279189999998,1.69971548457397
44.5452360000014,1.70615722687216
44.5619820000008,1.67620312518557
44.5808039999977,1.66686259885319
44.6018369999975,1.73321254452458
44.6212239999995,1.76252247198136
44.641425999999,1.74158680951223
44.664751000002,1.78764526694431
44.685175999999,1.91486967733363
44.7046449999958,1.92002307117218
44.7275909999981,1.7473843775806
44.7503830000013,1.58505247166613
44.7694469999969,1.68876452266704
44.7895300000012,1.56379472208209
44.8086199999973,1.74255307085696
44.8280269999951,1.70873392379144
44.8466290000007,1.6771693865303
44.8671489999965,1.66009876944008
44.885237999998,1.75253777141916
44.9064790000021,1.767353778705
44.9314710000008,1.65558954983135
44.9503460000008,1.70422470418271
44.9666199999973,1.68586573863286
44.9850359999985,1.72548245376674
45.0025560000017,1.73353463163949
45.0209319999963,1.72773706357111
45.0397109999955,1.7905440509785
45.0583229999989,1.7773384792672
45.0808549999967,1.54994497614098
45.1027789999992,1.5206350486842
45.1220340000018,2.00795285354252
45.1390569999963,1.5840862103214
45.1552299999967,1.51354913215619
45.1732719999999,1.78378022156539
45.1921529999971,1.7438414193166
45.2082679999992,1.7406205481675
45.2284790000021,1.67910190921975
45.2475359999984,1.6939179165056
45.2654930000007,1.59342673665378
45.2837129999995,1.69005287112668
45.3010939999968,1.68812034843722
45.322001000002,1.76638751736027
45.4452609999999,1.62627962237457
45.5109640000016,1.37472958563012
45.5567109999955,1.73675550278858
45.5781400000006,1.67298225403647
45.6030769999996,1.70164800726343
45.6258559999987,1.73901011259295
45.6508579999954,1.70776766244671
45.7372659999952,1.73031376049039
45.7614479999989,1.64914780753315
45.7802789999992,1.6671846859681
45.8005639999956,1.7074455753318
45.8244539999962,1.7705746498541
45.8425319999978,1.72000697281328
45.8596590000018,1.60759856970981
45.8807549999952,1.35604853296536
45.9043439999968,1.51161660946673
45.9211700000018,1.83692459552549
45.9451409999952,1.99313684625668
45.9616489999965,1.60759856970981
45.9790109999999,1.61951579296147
45.9990890000015,1.76832004004973
46.020060999997,1.78925570251886
46.039112999998,1.75962368794717
46.0577449999973,1.75543655545334
46.075736999996,1.68908660978195
46.0942789999992,1.65333494002698
46.1181810000017,1.71098853359581
46.1339450000003,1.69810504899942
46.1539209999964,1.7438414193166
46.1704079999998,1.76155621063663
46.1882690000012,1.73611132855876
46.2099469999969,1.69262956804596
46.2340789999962,1.72129532127292
46.2504900000021,1.75704699102789
46.2702170000002,1.49905521198525
46.2891700000018,1.37279706294066
46.3117439999953,1.80278336134506
46.3293219999969,1.45428510301281
46.3521660000011,1.81631102017127
46.3716480000019,1.85979278068407
46.3887809999958,1.69939339745906
46.4178369999975,1.73450089298422
46.4355300000012,1.77476178234792
46.452998999998,1.78249187310576
46.4756209999993,1.7206511470431
46.4995829999968,1.68940869689686
46.5147800000012,1.67620312518557
46.5325080000013,1.65365702714189
46.5525859999955,1.72354993107729
46.5723729999959,1.73868802547804
46.5878329999968,1.76252247198136
46.6089209999964,1.72934749914566
46.6293969999999,1.81888771709055
46.6486070000008,1.40436160020181
46.6625040000007,1.56637141900137
46.6887360000014,1.69842713611433
46.708061999999,1.80149501288543
46.7355679999962,1.51290495792637
46.7522219999954,1.78700109271449
46.7736840000004,1.81341223613708
46.7882339999974,1.8072925809538
46.8090529999957,1.70422470418271
46.8273969999999,1.69585043919506
46.8464230000004,1.65913250809535
46.8599279999956,1.70905601090635
46.878060999997,1.63948519408586
46.8996030000001,1.66750677308301
46.9152109999955,1.69907131034415
46.9366319999993,1.77154091119883
46.9533420000002,1.79440909635741
46.9745080000013,1.78957778963377
46.9931620000005,1.75189359718934
47.0071030000001,1.68135651902412
47.0246939999983,1.6507582431077
47.048300999999,2.00763076642761
47.114438000001,1.60308935010107
47.1324769999981,1.57184689995483
47.1553500000015,1.71324314340018
47.1708969999999,1.73675550278858
47.189549999997,1.70197009437834
47.2055890000016,1.69488417785033
47.2196519999951,1.71936279858346
47.2414169999957,1.67974608344957
47.2592070000023,1.65784415963572
47.2762709999979,1.68844243555213
47.2963999999985,1.69101913247141
47.3123680000007,1.65430120137171
47.3285710000023,1.64367232657969
47.352623999998,1.69681670053978
47.3694839999974,1.7206511470431
47.3882400000021,1.74609602912096
47.4121330000013,1.4674906747241
47.4301279999986,1.27101753462921
47.4512819999978,1.62982258063857
47.474986999996,1.66557425039355
47.4969670000002,1.5840862103214
47.5193299999982,1.663963814819
47.5362879999951,1.8105134521029
47.5568329999968,1.80213918711524
47.5723469999954,1.83338163726148
47.5930569999963,1.71163270782563
47.6080850000009,1.80986927787308
47.6264530000016,1.72032905992819
47.6406569999978,1.78603483136976
47.6592449999973,1.78893361540395
47.6751209999993,1.72966958626057
47.6930040000007,1.70905601090635
47.7086939999983,1.70358052995289
47.7254099999964,1.69681670053978
47.7425429999977,1.71002227225108
47.7586899999976,1.72000697281328
47.7744710000008,1.72290575684747
47.7940099999979,1.69230748093105
47.8092829999998,1.76606543024536
47.8259090000019,1.72000697281328
47.8406089999974,1.61758327027201
47.8584719999954,1.78120352464612
47.8737459999993,1.55219958594535
47.8928769999966,1.81598893305636
47.9052189999968,1.72580454088165
47.9249019999951,1.53029766213149
47.9384809999987,1.8272619820782
47.9552899999991,1.72161740838783
47.9693889999986,1.7406205481675
47.987375,1.75028316161479
48.0034319999963,1.76445499467081
48.0147870000005,1.65365702714189
48.0326669999957,1.69649461342487
48.0455459999964,1.65784415963572
48.0618399999961,1.67588103807066
48.0779189999998,1.65204659156734
48.0916599999964,1.68973078401177
48.1091379999965,1.65140241733752
48.1230249999985,1.71871862435364
48.1400209999979,1.68908660978195
48.1571559999958,1.70358052995289
48.1702669999972,1.71517566608964
48.1873769999966,1.74416350643151
48.2021079999953,1.73933219970786
48.2172170000002,1.73901011259295
48.2348229999989,1.73965428682277
48.2936359999999,1.66879512154264
48.3112459999993,1.39502107386943
48.3260539999977,1.94579004036495
48.3430899999961,1.69907131034415
48.3578839999959,1.72580454088165
48.3776609999984,1.63336553890258
48.3933310000002,1.72161740838783
48.4121679999977,1.72934749914566
48.4279820000008,1.66267546635936
48.4482479999959,1.61758327027201
48.4601810000017,1.69585043919506
48.4802769999951,1.63143301621312
48.4933249999955,1.68779826132231
48.5080029999986,1.7338567187544
48.5262479999959,1.72258366973256
48.5407109999955,1.76187829775154
48.5594200000018,1.6974608747696
48.5738720000014,1.72709288934129
48.5920590000004,1.70229218149325
48.6065099999979,1.74996107449988
48.6238799999952,1.57023646438029
48.6395269999951,1.87460878796992
48.6552199999988,1.69424000362051
48.671861999996,1.81276806190726
48.6908729999959,1.85013016723678
48.7058709999993,1.49261346968706
48.7238720000014,1.68425530305831
48.7412039999962,1.61983788007637
48.7596070000008,1.73965428682277
48.7722259999961,1.69424000362051
48.787501000002,1.74609602912096
48.8044189999998,1.73901011259295
48.8181979999989,1.79762996750651
48.8335199999958,1.663963814819
48.8525179999992,1.63433180024731
48.8792339999974,1.61242987643345
48.8955230000019,1.64528276215424
48.9100029999986,1.68103443190921
48.9227769999951,1.71356523051509
48.9399279999956,1.70841183667653
48.9583090000004,1.67877982210484
48.9765820000023,1.63175510332803
48.9940679999962,1.62305875122547
49.0154649999961,1.56154011227773
49.0323570000008,1.47683120105648
49.0482149999961,1.79762996750651
49.0606009999961,1.55187749883044
49.0741529999971,1.76155621063663
49.0862119999975,1.84626512185787
49.1038249999955,1.47811954951612
49.1231049999967,1.77186299831374
49.140486999996,1.76928630139446
49.1572259999961,1.82822824342293
49.1733060000017,1.77282925965847
49.1893269999996,1.79086613809341
49.2026969999969,1.77089673696901
49.2151789999977,1.76284455909627
49.228186999999,1.64657111061388
49.2448409999982,1.72322784396238
49.2633020000011,1.61597283469746
49.2816620000005,1.71388731763
49.3000089999959,1.71388731763
49.317748999998,1.72902541203075
49.3354340000004,1.72226158261765
49.3533399999961,1.73901011259295
49.3674809999987,1.72999167337548
49.3794570000023,1.66911720865755
49.4563039999977,1.62499127391493
49.4770309999958,1.54704619210679
49.4980679999962,1.71034435936599
49.5176269999966,1.75608072968316
49.5366969999969,1.75511446833843
49.5532149999961,1.76832004004973
49.5700260000005,1.75575864256825
49.5899010000005,1.71131062071072
49.6067899999991,1.74319724508678
49.6196909999996,1.7573690781428
49.6333430000022,1.71324314340018
49.6468729999959,1.68586573863286
49.6608229999989,1.65623372406117
49.6750230000019,1.71098853359581
49.688873999998,1.74770646469551
49.7036040000021,1.75575864256825
49.7217609999999,1.75640281679807
49.7402899999991,1.72032905992819
49.7582400000021,1.71388731763
49.77925,1.69456209073542
49.7977969999984,1.74255307085696
49.8162730000019,1.70422470418271
49.8344589999989,1.64979198176297
49.8531569999978,1.85882651933935
49.8723350000009,1.71420940474491
49.8930909999982,1.6874761742074
49.908799999997,1.70197009437834
49.9219759999961,1.69713878765469
49.9356279999986,1.7873231798294
49.9498179999962,1.73643341567367
49.9638189999983,1.70712348821689
49.9767859999984,1.77443969523301
49.9933369999975,1.63175510332803
50.0113779999986,1.68586573863286
50.0304069999978,1.62466918680002
50.0503859999999,1.71871862435364
50.0690049999952,1.76445499467081
50.0857459999993,1.74931690027006
50.1027599999979,1.73868802547804
50.1203940000013,1.73482298009912
50.1383219999969,1.7473843775806
50.1571229999959,1.74674020335078
50.1765850000009,1.61371822489309
50.1896700000018,1.86108112914371
50.2025670000017,1.63787475851132
50.2151909999996,1.70519096552744
50.2286829999983,1.63851893274114
50.2411269999966,1.67427060249611
50.2597459999993,1.52321174560348
50.2777269999981,1.59600343357306
50.2961629999951,1.73772176413331
50.315685999997,1.65108033022261
50.3312299999967,1.7873231798294
50.343074000001,1.62885631929385
50.3566019999981,1.64367232657969
50.3706469999999,1.80793675518362
50.3867629999965,1.80600423249416
50.4042189999968,1.69713878765469
50.4233329999968,1.79440909635741
50.4412349999994,1.69005287112668
50.4584050000012,1.69842713611433
50.4741140000001,1.68425530305831
50.5192320000008,1.71420940474491
50.537673999995,1.74512976777623
50.559324000001,1.67588103807066
50.5804189999998,1.66493007616373
50.6002950000018,1.69617252630997
50.6178500000015,1.72677080222638
50.6303680000007,1.60276726298616
50.6431110000014,1.76638751736027
50.6595989999995,1.3708645402512
50.6828999999985,1.96865822552354
50.7040389999971,2.09201759053394
50.7231519999951,1.86752287144191
50.7398540000021,1.60437769856071
50.7560450000018,1.560573850933
50.7755859999955,1.63111092909821
50.7943379999995,1.69488417785033
50.8150289999992,1.72000697281328
50.8356359999999,1.82210858823964
50.8524919999987,1.75447029410861
50.867810999997,1.71549775320455
50.8844670000002,1.78506857002503
50.9080399999991,1.717430275894
50.9313669999987,1.6771693865303
50.9497100000009,1.67813564787502
50.9701889999956,1.73675550278858
50.9942459999993,1.66331964058918
51.0182320000008,1.74641811623587
51.034324000001,1.76574334313045
51.0488479999974,1.70229218149325
51.067324000001,1.58601873301086
51.0918879999965,1.95319804400788
51.1118269999996,1.73224628317985
51.1312189999968,1.38600263465196
51.1534469999969,1.38986768003087
51.1839970000014,1.79440909635741
51.203425999999,1.79666370616178
51.2219890000001,1.80213918711524
51.2438929999992,1.70100383303361
51.2650780000016,1.69262956804596
51.2783689999953,1.68715408709249
51.2893489999995,1.7705746498541
51.3091579999998,1.73933219970786
51.329861999996,1.67008347000228
51.3466209999993,1.66589633750846
51.3619409999996,1.6807123447943
51.378563000001,1.6372305842815
51.3994820000008,1.68264486748376
51.4176939999983,1.70035965880379
51.4321649999991,1.67555895095575
51.4476009999961,1.65430120137171
51.4680269999951,1.73836593836313
51.4905190000012,1.72773706357111
51.5060179999992,1.81534475882654
51.5195300000012,1.66943929577246
51.5398669999987,1.82210858823964
51.5589959999993,1.81856562997564
51.5744750000015,1.75285985853407
51.5943919999972,1.75382611987879
51.6186189999953,1.84851973166224
51.634887000002,1.80117292577052
51.6551590000018,1.72419410530711
51.6726040000021,1.77991517618648
51.6893819999993,1.7406205481675
51.7075710000023,1.71034435936599
51.7212709999979,1.74351933220169
51.7424329999983,1.68264486748376
51.758185999997,1.65752207252081
51.7773519999981,1.65591163694626
51.7995989999995,1.7338567187544
51.8597659999952,1.65945459521026
51.873673999995,1.70680140110198
51.8909619999975,1.69456209073542
51.9073519999981,1.6939179165056
51.923173999995,1.72226158261765
51.9399139999971,1.77154091119883
51.9581159999967,1.60631022125017
51.9744429999962,1.79183239943814
51.9906330000013,1.56186219939264
52.007685999997,1.6072764825949
52.0251929999962,1.79118822520832
52.0403640000001,1.75608072968316
52.058949000001,1.71163270782563
52.0768959999979,1.68522156440304
52.0952519999966,1.72870332491584
52.111048999995,1.44945379628916
52.1260450000018,1.7541482069937
52.1445190000013,1.65655581117608
52.1590930000022,1.67974608344957
52.1760799999982,1.66943929577246
52.1954059999958,1.66364172770409
52.208686999999,1.73289045740967
52.2251469999999,1.6874761742074
52.243299999997,1.60856483105454
52.2614640000016,1.65462328848662
52.2776510000005,1.64785945907352
52.2901579999998,1.73965428682277
52.3073170000017,1.72000697281328
52.3256309999973,1.68200069325394
52.3495749999955,1.71968488569837
52.360111999996,1.66911720865755
52.3723989999965,1.72000697281328
52.3893310000002,1.73450089298422
52.4078200000003,1.68425530305831
52.4269780000001,1.86913330701645
52.4413320000023,1.53996027557878
52.4541229999959,1.93999247229658
52.4738469999954,1.89940949581796
52.4921629999951,1.69424000362051
52.5057239999995,1.71936279858346
52.519625,1.7741176081181
52.5376429999992,1.79247657366795
52.5597060000002,1.65269076579716
52.5738599999994,1.75930160083226
52.5887840000018,1.82178650112473
52.6122159999981,1.74094263528241
52.6270049999952,1.70647931398707
52.6411909999996,1.76864212716464
52.6591000000015,1.70583513975726
52.678611999996,1.63562014870695
52.6952299999967,1.69230748093105
52.7147919999957,1.71098853359581
52.7326510000005,1.69230748093105
52.7486359999999,1.71227688205545
52.7696620000005,1.76832004004973
52.7858179999962,1.76123412352172
52.8056330000013,1.75543655545334
52.8200169999972,1.76703169159009
52.8385590000004,1.76026786217699
52.8555349999964,1.75769116525771
52.8713819999993,1.75157151007443
52.890251000002,1.75897951371735
52.9092749999985,1.77830474061193
52.9251379999965,1.35443809739081
52.9429689999968,1.80503797114943
52.957986999996,1.84014546667458
52.974924999997,1.61951579296147
52.9925,1.56025176381809
53.0035879999995,1.70937809802126
53.0191770000011,1.82951659188257
53.0379469999969,1.76477708178572
53.051425999999,1.72516036665183
53.1144460000023,1.62209248988074
53.1307709999979,1.62015996719128
53.1491909999996,1.73933219970786
53.1687599999979,1.74094263528241
53.1865359999984,1.72934749914566
53.2020839999989,1.73901011259295
53.2160670000017,1.6839332159434
53.2302829999998,1.6671846859681
53.2488460000008,1.67845773498993
53.2663090000004,1.6839332159434
53.2840700000003,1.72773706357111
53.295923999995,1.66267546635936
53.3112840000018,1.67459268961102
53.328800999999,1.62466918680002
53.3454420000017,1.43850283438223
53.3582580000013,1.89457818909432
53.376424999997,1.46781276183901
53.3914219999984,1.80632631960907
53.4061220000014,1.71581984031945
53.425949000001,1.59793595626252
53.4396449999958,1.79312074789777
53.4563420000002,1.6472152848437
53.4752140000016,1.78861152828904
53.4897950000018,1.7206511470431
53.5058500000015,1.75608072968316
53.5214090000018,1.69456209073542
53.5401999999955,1.78635691848467
53.5562199999988,1.76832004004973
53.5736840000004,1.717430275894
53.5888159999996,1.71292105628527
53.6060139999986,1.71936279858346
53.6208409999982,1.72097323415801
53.6364820000008,1.75253777141916
53.6536499999985,1.75640281679807
53.668949000001,1.74223098374205
53.6856429999992,1.74899481315515
53.6998799999952,1.71195479494054
53.7163659999967,1.72644871511147
53.7343579999954,1.74448559354641
53.7480389999971,1.67684729941539
53.764561999999,1.6874761742074
53.7829050000012,1.72097323415801
53.7982840000018,1.73707758990349
53.8160839999989,1.60759856970981
53.8329090000018,1.8072925809538
53.8512690000013,1.64946989464806
53.8666599999964,1.55864132824354
53.8811669999957,1.75221568430425
53.8983669999987,1.53384062039549
53.9167259999961,1.78603483136976
53.9296969999969,1.58376412320649
53.9491209999993,1.4539630158979
53.9641009999961,1.6839332159434
53.9816899999976,1.66782886019791
53.998186999999,1.69005287112668
54.0113139999956,1.66943929577246
54.0270059999973,1.70615722687216
54.0430979999974,1.67362642826629
54.0595319999978,1.67330434115138
54.0754219999984,1.7106664464809
54.0904790000021,1.72000697281328
54.1067170000002,1.72000697281328
54.1227159999981,1.75124942295952
54.1371319999993,1.76220038486645
54.2052210000008,1.75318194564898
54.2193020000011,1.75769116525771
54.2382250000015,1.7473843775806
54.2524289999977,1.74996107449988
54.271310999997,1.75640281679807
54.2905729999989,1.70937809802126
54.3038329999968,1.93032985884929
54.3227569999993,1.79344283501268
54.3433729999959,1.51193869658164
54.3567779999971,1.58891751704505
54.3743830000013,1.93290655576857
54.3919900000021,1.60019056606689
54.404925999999,1.78957778963377
54.4227679999992,1.69713878765469
54.4441499999985,1.70035965880379
54.4619499999955,1.55960758958827
54.4770389999971,1.70841183667653
54.494637000002,1.62338083834038
54.5098799999952,1.70325844283798
54.5269619999975,1.64528276215424
54.541574000001,1.69971548457397
54.5569609999955,1.63851893274114
54.5756339999959,1.70422470418271
54.5933289999962,1.60566604702035
54.6061789999977,1.72999167337548
54.6227280000001,1.70583513975726
54.6407760000005,1.71485357897473
54.6564579999968,1.70647931398707
54.6708390000015,1.7306358476053
54.6873299999982,1.74802855181042
54.7047290000021,1.72677080222638
54.7201569999978,1.75157151007443
54.733986999996,1.72870332491584
54.7519780000001,1.73321254452458
54.7697009999976,1.78023726330139
54.7848720000014,1.68200069325394
54.7970410000011,1.73868802547804
54.8096510000005,1.54446949518751
54.827912999995,1.70841183667653
54.8428479999974,1.53577314308495
54.856112999998,1.6906970453565
54.8731449999958,1.90101993139251
54.8921950000003,1.74577394200605
54.9073500000015,1.6874761742074
54.9201810000017,1.80246127423015
54.9366429999992,1.86494617452263
54.9567719999999,1.77991517618648
54.9708779999986,1.79151031232323
54.9853909999952,1.74931690027006
55.0044079999998,1.75382611987879
55.0210049999952,1.7641329075559
55.0348310000002,1.77637221792247
55.0486449999958,1.68135651902412
55.0741030000001,1.70132592014852
55.0913530000001,1.70873392379144
55.1076269999966,1.71807445012382
55.1257690000012,1.66525216327864
55.1438969999999,1.65172450445243
55.1572140000016,1.71002227225108
55.1730049999952,1.72419410530711
55.1909680000022,1.70229218149325
55.2049790000021,1.74158680951223
55.2208189999983,1.78635691848467
55.2372089999989,1.70776766244671
55.2556799999997,1.74094263528241
55.3058509999961,1.86236947760335
55.3235260000005,1.7306358476053
55.337438000001,1.61661700892728
55.3532739999965,1.69166330670123
55.3720969999954,1.78249187310576
55.3881719999984,1.70808974956162
55.4025729999989,1.76316664621118
55.4185309999958,1.74512976777623
55.4374839999974,1.76574334313045
55.4550249999985,1.71839653723873
55.4709479999989,1.75028316161479
55.4867149999961,1.77089673696901
55.5065960000008,1.71549775320455
55.5258819999993,1.69424000362051
55.5404460000023,1.72516036665183
55.5574499999955,1.68586573863286
55.5734079999998,1.72354993107729
55.5919289999977,1.66621842462337
55.6079820000008,1.68779826132231
55.6251359999999,1.68264486748376
55.6396040000021,1.72129532127292
55.658251000002,1.70486887841253
55.6736909999996,1.67781356076011
55.6902950000018,1.86655661009718
55.7067789999992,1.7473843775806
55.7257769999951,1.54607993076206
55.7416579999998,1.52772096521221
55.7614079999998,1.46169310665573
55.7766840000004,1.44913170917425
55.7938559999987,1.75575864256825
55.8084939999953,1.75124942295952
55.8257589999959,1.74609602912096
55.8403310000002,1.75382611987879
55.8572030000016,1.72226158261765
55.8752519999966,1.69778296188451
55.8884930000007,1.73031376049039
55.9062559999973,1.7274149764562
55.9251299999952,1.60502187279053
55.9420199999958,1.68779826132231
55.9586559999958,1.65655581117608
55.9754450000003,1.70776766244671
55.9924230000004,1.68618782574777
56.009175999999,1.65655581117608
56.0234270000011,1.70647931398707
56.0422349999994,1.68361112882849
56.0556359999999,1.7206511470431
56.0735429999977,1.72161740838783
56.0917459999993,1.70486887841253
56.1062889999971,1.80374962268979
56.123012000002,1.63529806159204
56.1445179999992,1.52095713579911
56.1590099999979,1.88620392410667
56.1741770000011,1.58311994897667
56.188949000001,1.66750677308301
56.2076639999971,1.93805994960712
56.2231510000005,1.65526746271644
56.2384839999974,1.78152561176103
56.3091969999969,1.6707276442321
56.3255769999996,1.71968488569837
56.3432919999957,1.6939179165056
56.3575300000012,1.6439944136946
56.3756620000005,1.67169390557683
56.388550999999,1.68489947728813
56.4056510000005,1.75253777141916
56.4231140000001,1.70164800726343
56.4393919999972,1.71195479494054
56.4549530000016,1.74867272604024
56.4727159999982,1.72483827953693
56.491049999997,1.68039025767939
56.5049829999953,1.7573690781428
56.5239200000018,1.70615722687216
56.5381819999963,1.77121882408392
56.5572769999951,1.73224628317985
56.571498999998,1.77894891484175
56.5886000000015,1.83499207283603
56.6022959999964,1.76477708178572
56.6208579999954,1.62917840640876
56.6370439999998,1.84111172801931
56.6515590000004,1.73160210895003
56.6670689999983,1.96672570283408
56.6825560000017,1.52772096521221
56.6969209999964,1.38310385061777
56.7121089999974,1.76445499467081
56.7270659999996,1.60373352433089
56.7412849999964,1.49196929545724
56.7591529999971,1.55864132824354
56.7757030000016,1.68296695459867
56.7914179999977,1.58183160051703
56.8061359999999,1.75640281679807
56.8209499999955,1.72773706357111
56.8388149999976,1.74512976777623
56.8532219999954,1.69810504899942
56.8731199999973,1.73901011259295
56.8921299999952,1.65204659156734
56.9088680000007,1.68844243555213
56.928936999999,1.59535925934324
56.9524729999974,1.73192419606494
56.9713900000006,1.7506052487297
56.9908409999982,1.69488417785033
57.0070169999972,1.69939339745906
57.0275749999955,1.63851893274114
57.0424019999951,1.67427060249611
57.0619059999958,1.82532945938874
57.0812089999989,1.66654051173828
57.1009790000021,1.57635611956357
57.118310999997,1.79891831596615
57.1395769999996,1.86011486779898
57.1623849999979,1.81470058459672
57.1870749999955,1.74706229046569
57.2052409999967,1.78023726330139
57.2304930000007,1.68232278036885
57.2480939999968,1.70712348821689
57.2701679999977,1.74545185489114
57.2879750000015,1.79473118347232
57.3096389999986,1.65108033022261
57.3293500000015,1.69327374227578
57.3508980000019,1.73772176413331
57.3689570000023,1.75704699102789
57.3899050000012,1.71614192743436
57.4072639999986,1.68812034843722
57.4238359999955,1.70132592014852
57.4447709999979,1.6571999854059
57.4609310000017,1.66460798904882
57.4794919999987,1.66976138288737
57.4993579999954,1.61210778931854
57.5574509999976,1.7605899492919
57.5806019999981,1.79956249019597
57.5994609999955,1.65655581117608
57.6199120000005,1.71195479494054
57.6409860000014,1.68522156440304
57.6631700000018,1.68522156440304
57.6792250000015,1.65816624675062
57.6997060000002,1.71227688205545
57.7201379999965,1.73256837029476
57.7418399999961,1.73836593836313
57.7586059999987,1.7238720181922
57.7842470000014,1.78700109271449
57.8029759999961,1.7873231798294
57.8250340000018,1.72644871511147
57.8458350000009,1.7006817459187
57.8618310000002,1.70422470418271
57.8844469999969,1.78828944117413
57.8989530000016,1.71517566608964
57.9214399999976,1.73224628317985
57.9406030000001,1.84948599300697
57.9583289999962,1.70325844283798
57.9820670000017,1.46201519377064
57.9987910000011,1.85979278068407
58.0193859999999,1.69424000362051
58.0372779999971,1.74512976777623
58.0583020000011,1.74577394200605
58.0754539999962,1.72193949550274
58.095251000002,1.72709288934129
58.1167219999954,1.73256837029476
58.135122999996,1.77605013080756
58.1558980000019,1.74190889662714
58.1733329999968,1.7106664464809
58.1889930000007,1.73707758990349
58.2098980000019,1.65204659156734
58.228876000002,1.62885631929385
58.2474790000021,1.66493007616373
58.268362999998,1.73643341567367
58.287875,1.7506052487297
58.3063929999992,1.717430275894
58.3285909999982,1.66943929577246
58.3490710000023,1.77572804369265
58.3685439999998,1.61951579296147
58.3863570000008,1.63111092909821
58.4024750000015,1.84207798936404
58.4224710000008,1.72838123780093
58.4415109999999,1.69842713611433
58.4567789999992,1.6607429436699
58.4746559999958,1.58698499435559
58.4906569999978,1.71098853359581
58.5089710000008,1.72902541203075
58.5237840000018,1.76348873332608
58.5429270000011,1.73804385124822
58.5569499999955,1.71646401454927
58.5749629999995,1.74545185489114
58.5951669999957,1.62273666411056
58.6091110000014,1.71936279858346
58.6238859999999,1.63562014870695
58.6434780000001,1.66203129212954
58.6615569999963,1.64979198176297
58.6770019999966,1.63626432293677
58.6900920000002,1.69488417785033
58.7038549999967,1.72548245376674
58.7223179999962,1.66621842462337
58.7409420000017,1.67910190921975
58.7562400000021,1.68973078401177
58.7696070000008,1.71710818877909
58.8355439999998,1.71002227225108
58.8533210000023,1.6040556114458
58.8720930000022,1.65269076579716
58.8905829999968,1.32899321531295
58.9034219999984,1.84755347031751
58.9180590000004,1.36828784333193
58.9368139999956,1.79698579327669
58.9553060000017,1.93097403307911
58.9683189999983,1.62563544814475
58.9855569999963,1.64657111061388
59.0035099999979,1.88266096584266
59.0182470000014,1.71936279858346
59.030449000001,1.74158680951223
59.0503790000007,1.76091203640681
59.0693729999959,1.79505327058723
59.0872840000018,1.78313604733557
59.100486999996,1.74609602912096
59.1132199999988,1.69456209073542
59.1311620000005,1.70551305264235
59.1504609999955,1.75608072968316
59.1645659999996,1.71324314340018
59.178810999997,1.71227688205545
59.1943949999958,1.73836593836313
59.2132049999982,1.71356523051509
59.2333399999961,1.76638751736027
59.2520829999968,1.80439379691961
59.2721799999997,1.76155621063663
59.2955260000005,1.7641329075559
59.310074000001,1.71356523051509
59.3260049999952,1.71936279858346
59.3432360000014,1.77347343388828
59.3610359999984,1.66911720865755
59.3828079999983,1.67684729941539
59.3980579999983,1.76799795293482
59.4102329999954,1.69713878765469
59.4300649999976,1.63626432293677
59.4544279999957,1.60373352433089
59.4875659999996,1.76123412352172
59.5497219999954,1.59503717222833
59.6208259999976,2.02534555774764
59.6459900000021,1.43753657303751
59.6713210000023,1.70422470418271
59.6930139999986,1.56798185457592
59.7212390000001,1.74867272604024
59.7520520000011,1.81566684594145
59.7745450000018,1.7940870092425
59.7936719999984,1.68844243555213
59.8113159999996,1.67330434115138
59.8339589999989,1.73707758990349
59.858574000001,1.72290575684747
59.8781770000011,1.62950049352366
59.8955899999961,1.70551305264235
59.9161309999973,1.77089673696901
59.9312690000013,1.6739485153812
59.948936999999,1.68522156440304
59.9747470000014,1.71936279858346
59.9976840000004,1.68328904171358
